# Pulseq sequence file
# Created by PyPulseq

[VERSION]
major 1
minor 3
revision 0

[DEFINITIONS]
Name 20201210_gre_20slc_TR200_fatsat
FOV 0.220000 
Slice_Thickness 0.002000 

# Format of blocks:
#  #  D RF  GX  GY  GZ ADC EXT
[BLOCKS]
   1  1  0   0   0   0  1  0
   2  1  0   0   0   0  1  0
   3  1  0   0   0   0  1  0
   4  1  0   0   0   0  1  0
   5  1  0   0   0   0  1  0
   6  1  0   0   0   0  1  0
   7  1  0   0   0   0  1  0
   8  1  0   0   0   0  1  0
   9  1  0   0   0   0  1  0
  10  1  0   0   0   0  1  0
  11  1  0   0   0   0  1  0
  12  1  0   0   0   0  1  0
  13  1  0   0   0   0  1  0
  14  1  0   0   0   0  1  0
  15  1  0   0   0   0  1  0
  16  1  0   0   0   0  1  0
  17  2  1   0   0   0  0  0
  18  0  0   0   0   1  0  0
  19  0  2   0   0   2  0  0
  20  0  0   0   0   3  0  0
  21  3  0   0   0   0  0  0
  22  4  0   4   5   0  0  0
  23  0  0   6   7   1  0  0
  24  5  0   0   0   0  0  0
  25  2  3   0   0   0  0  0
  26  0  0   0   0   1  0  0
  27  0  2   0   0   2  0  0
  28  0  0   0   0   3  0  0
  29  3  0   0   0   0  0  0
  30  4  0   4   5   0  0  0
  31  0  0   6   7   1  0  0
  32  5  0   0   0   0  0  0
  33  2  4   0   0   0  0  0
  34  0  0   0   0   1  0  0
  35  0  2   0   0   2  0  0
  36  0  0   0   0   3  0  0
  37  3  0   0   0   0  0  0
  38  4  0   4   5   0  0  0
  39  0  0   6   7   1  0  0
  40  5  0   0   0   0  0  0
  41  2  5   0   0   0  0  0
  42  0  0   0   0   1  0  0
  43  0  2   0   0   2  0  0
  44  0  0   0   0   3  0  0
  45  3  0   0   0   0  0  0
  46  4  0   4   5   0  0  0
  47  0  0   6   7   1  0  0
  48  5  0   0   0   0  0  0
  49  2  6   0   0   0  0  0
  50  0  0   0   0   1  0  0
  51  0  2   0   0   2  0  0
  52  0  0   0   0   3  0  0
  53  3  0   0   0   0  0  0
  54  4  0   4   5   0  0  0
  55  0  0   6   7   1  0  0
  56  5  0   0   0   0  0  0
  57  2  7   0   0   0  0  0
  58  0  0   0   0   1  0  0
  59  0  2   0   0   2  0  0
  60  0  0   0   0   3  0  0
  61  3  0   0   0   0  0  0
  62  4  0   4   5   0  0  0
  63  0  0   6   7   1  0  0
  64  5  0   0   0   0  0  0
  65  2  8   0   0   0  0  0
  66  0  0   0   0   1  0  0
  67  0  2   0   0   2  0  0
  68  0  0   0   0   3  0  0
  69  3  0   0   0   0  0  0
  70  4  0   4   5   0  0  0
  71  0  0   6   7   1  0  0
  72  5  0   0   0   0  0  0
  73  2  9   0   0   0  0  0
  74  0  0   0   0   1  0  0
  75  0  2   0   0   2  0  0
  76  0  0   0   0   3  0  0
  77  3  0   0   0   0  0  0
  78  4  0   4   5   0  0  0
  79  0  0   6   7   1  0  0
  80  5  0   0   0   0  0  0
  81  2  1   0   0   0  0  0
  82  0  0   0   0   1  0  0
  83  0  2   0   0   2  0  0
  84  0  0   0   0   3  0  0
  85  3  0   0   0   0  0  0
  86  4  0   4   5   0  0  0
  87  0  0   6   7   1  0  0
  88  5  0   0   0   0  0  0
  89  2 10   0   0   0  0  0
  90  0  0   0   0   1  0  0
  91  0  2   0   0   2  0  0
  92  0  0   0   0   3  0  0
  93  3  0   0   0   0  0  0
  94  4  0   4   5   0  0  0
  95  0  0   6   7   1  0  0
  96  5  0   0   0   0  0  0
  97  2 11   0   0   0  0  0
  98  0  0   0   0   1  0  0
  99  0  2   0   0   2  0  0
 100  0  0   0   0   3  0  0
 101  3  0   0   0   0  0  0
 102  4  0   4   5   0  0  0
 103  0  0   6   7   1  0  0
 104  5  0   0   0   0  0  0
 105  2 12   0   0   0  0  0
 106  0  0   0   0   1  0  0
 107  0  2   0   0   2  0  0
 108  0  0   0   0   3  0  0
 109  3  0   0   0   0  0  0
 110  4  0   4   5   0  0  0
 111  0  0   6   7   1  0  0
 112  5  0   0   0   0  0  0
 113  2  5   0   0   0  0  0
 114  0  0   0   0   1  0  0
 115  0  2   0   0   2  0  0
 116  0  0   0   0   3  0  0
 117  3  0   0   0   0  0  0
 118  4  0   4   5   0  0  0
 119  0  0   6   7   1  0  0
 120  5  0   0   0   0  0  0
 121  2 11   0   0   0  0  0
 122  0  0   0   0   1  0  0
 123  0  2   0   0   2  0  0
 124  0  0   0   0   3  0  0
 125  3  0   0   0   0  0  0
 126  4  0   4   5   0  0  0
 127  0  0   6   7   1  0  0
 128  5  0   0   0   0  0  0
 129  2 13   0   0   0  0  0
 130  0  0   0   0   1  0  0
 131  0  2   0   0   2  0  0
 132  0  0   0   0   3  0  0
 133  3  0   0   0   0  0  0
 134  4  0   4   5   0  0  0
 135  0  0   6   7   1  0  0
 136  5  0   0   0   0  0  0
 137  2 14   0   0   0  0  0
 138  0  0   0   0   1  0  0
 139  0  2   0   0   2  0  0
 140  0  0   0   0   3  0  0
 141  3  0   0   0   0  0  0
 142  4  0   4   5   0  0  0
 143  0  0   6   7   1  0  0
 144  5  0   0   0   0  0  0
 145  2  9   0   0   0  0  0
 146  0  0   0   0   1  0  0
 147  0  2   0   0   2  0  0
 148  0  0   0   0   3  0  0
 149  3  0   0   0   0  0  0
 150  4  0   4   5   0  0  0
 151  0  0   6   7   1  0  0
 152  5  0   0   0   0  0  0
 153  2 10   0   0   0  0  0
 154  0  0   0   0   1  0  0
 155  0  2   0   0   2  0  0
 156  0  0   0   0   3  0  0
 157  3  0   0   0   0  0  0
 158  4  0   4   5   0  0  0
 159  0  0   6   7   1  0  0
 160  5  0   0   0   0  0  0
 161  2 15   0   0   0  0  0
 162  0  0   0   0   1  0  0
 163  0  2   0   0   2  0  0
 164  0  0   0   0   3  0  0
 165  3  0   0   0   0  0  0
 166  4  0   4   5   0  0  0
 167  0  0   6   7   1  0  0
 168  5  0   0   0   0  0  0
 169  2  6   0   0   0  0  0
 170  0  0   0   0   1  0  0
 171  0  2   0   0   2  0  0
 172  0  0   0   0   3  0  0
 173  3  0   0   0   0  0  0
 174  4  0   4   5   0  0  0
 175  0  0   6   7   1  0  0
 176  5  0   0   0   0  0  0
 177  2 12   0   0   0  0  0
 178  0  0   0   0   1  0  0
 179  0  2   0   0   2  0  0
 180  0  0   0   0   3  0  0
 181  3  0   0   0   0  0  0
 182  4  0   4   5   0  2  0
 183  0  0   6   7   1  0  0
 184  5  0   0   0   0  0  0
 185  2  7   0   0   0  0  0
 186  0  0   0   0   1  0  0
 187  0  2   0   0   2  0  0
 188  0  0   0   0   3  0  0
 189  3  0   0   0   0  0  0
 190  4  0   8   9   0  2  0
 191  0  0  10  11   1  0  0
 192  5  0   0   0   0  0  0
 193  2  3   0   0   0  0  0
 194  0  0   0   0   1  0  0
 195  0  2   0   0   2  0  0
 196  0  0   0   0   3  0  0
 197  3  0   0   0   0  0  0
 198  4  0  12  13   0  2  0
 199  0  0  14  15   1  0  0
 200  5  0   0   0   0  0  0
 201  2 16   0   0   0  0  0
 202  0  0   0   0   1  0  0
 203  0  2   0   0   2  0  0
 204  0  0   0   0   3  0  0
 205  3  0   0   0   0  0  0
 206  4  0  16  17   0  2  0
 207  0  0  18  19   1  0  0
 208  5  0   0   0   0  0  0
 209  2 14   0   0   0  0  0
 210  0  0   0   0   1  0  0
 211  0  2   0   0   2  0  0
 212  0  0   0   0   3  0  0
 213  3  0   0   0   0  0  0
 214  4  0  20  21   0  2  0
 215  0  0  22  23   1  0  0
 216  5  0   0   0   0  0  0
 217  2  3   0   0   0  0  0
 218  0  0   0   0   1  0  0
 219  0  2   0   0   2  0  0
 220  0  0   0   0   3  0  0
 221  3  0   0   0   0  0  0
 222  4  0  24  25   0  2  0
 223  0  0  26  27   1  0  0
 224  5  0   0   0   0  0  0
 225  2 15   0   0   0  0  0
 226  0  0   0   0   1  0  0
 227  0  2   0   0   2  0  0
 228  0  0   0   0   3  0  0
 229  3  0   0   0   0  0  0
 230  4  0  28  29   0  2  0
 231  0  0  30  31   1  0  0
 232  5  0   0   0   0  0  0
 233  2 17   0   0   0  0  0
 234  0  0   0   0   1  0  0
 235  0  2   0   0   2  0  0
 236  0  0   0   0   3  0  0
 237  3  0   0   0   0  0  0
 238  4  0  32  33   0  2  0
 239  0  0  34  35   1  0  0
 240  5  0   0   0   0  0  0
 241  2  6   0   0   0  0  0
 242  0  0   0   0   1  0  0
 243  0  2   0   0   2  0  0
 244  0  0   0   0   3  0  0
 245  3  0   0   0   0  0  0
 246  4  0  36  37   0  2  0
 247  0  0  38  39   1  0  0
 248  5  0   0   0   0  0  0
 249  2  4   0   0   0  0  0
 250  0  0   0   0   1  0  0
 251  0  2   0   0   2  0  0
 252  0  0   0   0   3  0  0
 253  3  0   0   0   0  0  0
 254  4  0  40  41   0  2  0
 255  0  0  42  43   1  0  0
 256  5  0   0   0   0  0  0
 257  2 13   0   0   0  0  0
 258  0  0   0   0   1  0  0
 259  0  2   0   0   2  0  0
 260  0  0   0   0   3  0  0
 261  3  0   0   0   0  0  0
 262  4  0  44  45   0  2  0
 263  0  0  46  47   1  0  0
 264  5  0   0   0   0  0  0
 265  2  9   0   0   0  0  0
 266  0  0   0   0   1  0  0
 267  0  2   0   0   2  0  0
 268  0  0   0   0   3  0  0
 269  3  0   0   0   0  0  0
 270  4  0  48  49   0  2  0
 271  0  0  50  51   1  0  0
 272  5  0   0   0   0  0  0
 273  2 16   0   0   0  0  0
 274  0  0   0   0   1  0  0
 275  0  2   0   0   2  0  0
 276  0  0   0   0   3  0  0
 277  3  0   0   0   0  0  0
 278  4  0  52  53   0  2  0
 279  0  0  54  55   1  0  0
 280  5  0   0   0   0  0  0
 281  2  8   0   0   0  0  0
 282  0  0   0   0   1  0  0
 283  0  2   0   0   2  0  0
 284  0  0   0   0   3  0  0
 285  3  0   0   0   0  0  0
 286  4  0  56  57   0  2  0
 287  0  0  58  59   1  0  0
 288  5  0   0   0   0  0  0
 289  2 11   0   0   0  0  0
 290  0  0   0   0   1  0  0
 291  0  2   0   0   2  0  0
 292  0  0   0   0   3  0  0
 293  3  0   0   0   0  0  0
 294  4  0  60  61   0  2  0
 295  0  0  62  63   1  0  0
 296  5  0   0   0   0  0  0
 297  2 17   0   0   0  0  0
 298  0  0   0   0   1  0  0
 299  0  2   0   0   2  0  0
 300  0  0   0   0   3  0  0
 301  3  0   0   0   0  0  0
 302  4  0  64  65   0  2  0
 303  0  0  66  67   1  0  0
 304  5  0   0   0   0  0  0
 305  2 17   0   0   0  0  0
 306  0  0   0   0   1  0  0
 307  0  2   0   0   2  0  0
 308  0  0   0   0   3  0  0
 309  3  0   0   0   0  0  0
 310  4  0  68  69   0  2  0
 311  0  0  70  71   1  0  0
 312  5  0   0   0   0  0  0
 313  2 11   0   0   0  0  0
 314  0  0   0   0   1  0  0
 315  0  2   0   0   2  0  0
 316  0  0   0   0   3  0  0
 317  3  0   0   0   0  0  0
 318  4  0  72  73   0  2  0
 319  0  0  74  75   1  0  0
 320  5  0   0   0   0  0  0
 321  2  8   0   0   0  0  0
 322  0  0   0   0   1  0  0
 323  0  2   0   0   2  0  0
 324  0  0   0   0   3  0  0
 325  3  0   0   0   0  0  0
 326  4  0  76  77   0  2  0
 327  0  0  78  79   1  0  0
 328  5  0   0   0   0  0  0
 329  2 16   0   0   0  0  0
 330  0  0   0   0   1  0  0
 331  0  2   0   0   2  0  0
 332  0  0   0   0   3  0  0
 333  3  0   0   0   0  0  0
 334  4  0  80  81   0  2  0
 335  0  0  82  83   1  0  0
 336  5  0   0   0   0  0  0
[RF]
1      308.172 1 2 100 -981 0
2      83.1275 3 4 110 -14166.7 0
3      308.172 1 2 100 -981 0.872665
4      308.172 1 2 100 -981 2.61799
5      308.172 1 2 100 -981 5.23599
6      308.172 1 2 100 -981 2.44346
7      308.172 1 2 100 -981 0.523599
8      308.172 1 2 100 -981 5.75959
9      308.172 1 2 100 -981 5.58505
10      308.172 1 2 100 -981 1.5708
11      308.172 1 2 100 -981 4.01426
12      308.172 1 2 100 -981 1.0472
13      308.172 1 2 100 -981 3.66519
14      308.172 1 2 100 -981 4.18879
15      308.172 1 2 100 -981 4.71239
16      308.172 1 2 100 -981 2.0944
17      308.172 1 2 100 -981 3.14159
18      83.1275 3 4 110 -10833.3 0
19      83.1275 3 4 110 -7500 0
20      83.1275 3 4 110 -4166.67 0
21      83.1275 3 4 110 -833.333 0
22      83.1275 3 4 110 2500 0
23      83.1275 3 4 110 5833.33 0
24      83.1275 3 4 110 9166.67 0
25      83.1275 3 4 110 12500 0
26      83.1275 3 4 110 15833.3 0
27      83.1275 3 4 110 -15833.3 0
28      83.1275 3 4 110 -12500 0
29      83.1275 3 4 110 -9166.67 0
30      83.1275 3 4 110 -5833.33 0
31      83.1275 3 4 110 -2500 0
32      83.1275 3 4 110 833.333 0
33      83.1275 3 4 110 4166.67 0
34      83.1275 3 4 110 7500 0
35      83.1275 3 4 110 10833.3 0
36      83.1275 3 4 110 14166.7 0

# Format of arbitrary gradients:
# id amplitude shape_id delay
# ..      Hz/m     ....    us
[GRADIENTS]
4  1.45456e+06 5 20
5  1.39774e+06 6 20
8  1.46522e+06 7 20
9  1.40877e+06 8 20
12  1.47554e+06 9 20
13  1.41963e+06 10 20
16  1.46136e+06 11 20
17  1.43017e+06 12 20
20  1.38375e+06 13 20
21  1.44126e+06 14 20
24   1.3948e+06 15 20
25  1.45196e+06 16 20
28  1.40562e+06 17 20
29  1.46229e+06 18 20
32  1.41685e+06 19 20
33  1.47316e+06 20 20
36  1.42784e+06 21 20
37  1.47273e+06 22 20
40  1.43855e+06 23 20
41  1.39292e+06 24 20
44  1.44903e+06 25 20
45  1.39216e+06 26 20
48     1.46e+06 27 20
49  1.40331e+06 28 20
52  1.47026e+06 29 20
53   1.4142e+06 30 20
56  1.47869e+06 31 20
57  1.42492e+06 32 20
60  1.42115e+06 33 20
61  1.43573e+06 34 20
64  1.38931e+06 35 20
65   1.4467e+06 36 20
68  1.40021e+06 37 20
69  1.45709e+06 38 20
72  1.41127e+06 39 20
73  1.46779e+06 40 20
76  1.42235e+06 41 20
77  1.47832e+06 42 20
80  1.43327e+06 43 20
81  1.44407e+06 44 20
84  1.44372e+06 45 20
85  1.38661e+06 46 20

# Format of trapezoid gradients:
# id amplitude rise flat fall delay
# ..      Hz/m   us   us   us    us
[TRAP]
 1  2.22994e+06 540    0 540 100
 2       833333 110 3000 110   0
 3 -2.31399e+06 310  250 310   0
 6  1.18603e+06 280    0 280   0
 7      -297523  70    0  70   0
10  1.11141e+06 280    0 280   0
11      -692858 170    0 170   0
14  1.05061e+06 250    0 250   0
15      -928543 220    0 220   0
18       867138 220    0 220   0
19 -1.04855e+06 260    0 260   0
22       637115 160    0 160   0
23 -1.13122e+06 280    0 280   0
26       101215  40    0  40   0
27 -1.18827e+06 280    0 280   0
30      -628006 150    0 150   0
31 -1.13974e+06 280    0 280   0
34      -876572 210    0 210   0
35 -1.06609e+06 260    0 260   0
38 -1.03041e+06 250    0 250   0
39      -915696 230    0 230   0
42 -1.14162e+06 270    0 270   0
43      -696241 180    0 180   0
46 -1.18387e+06 280    0 280   0
47      -321124  90    0  90   0
50 -1.16169e+06 280    0 280   0
51       539147 130    0 130   0
54 -1.07468e+06 270    0 270   0
55       814258 200    0 200   0
58      -955299 240    0 240   0
59  1.00477e+06 240    0 240   0
62      -778987 190    0 190   0
63  1.10374e+06 270    0 270   0
66      -446600 120    0 120   0
67  1.17284e+06 280    0 280   0
70       414412 110    0 110   0
71  1.17715e+06 280    0 280   0
74       740591 190    0 190   0
75  1.11675e+06 270    0 270   0
78       971027 230    0 230   0
79       986606 250    0 250   0
82  1.10045e+06 260    0 260   0
83       849320 200    0 200   0
86  1.15526e+06 280    0 280   0
87       557023 140    0 140   0

# Format of ADC events:
# id num dwell delay freq phase
# ..  ..    ns    us   Hz   rad
[ADC]
1 256 2000 0 0 0
2 2678 1300 0 0 0

# Format of delays:
# id delay (us)
[DELAYS]
1 1520
2 2230
3 2520
4 3690
5 185110

# Sequence Shapes
[SHAPES]

shape_id 1
num_samples 2100
0.03152382
0.00020837
0.00020953
0.00021072
0.00021191
0.0002131
0.0002143
0.00021549
0.00021671
0.00021792
0.00021913
0.00022036
0.00022159
0.00022282
0.00022406
0.00022531
0.00022655
0.00022781
0.00022906
0.00023034
0.0002316
0.00023288
0.00023416
0.00023545
0.00023674
0.00023803
0.00023934
0.00024065
0.00024196
0.00024327
0.00024461
0.00024593
0.00024727
0.00024861
0.00024995
0.00025131
0.00025266
0.00025402
0.0002554
0.00025676
0.00025815
0.00025953
0.00026092
0.00026231
0.00026372
0.00026512
0.00026654
0.00026795
0.00026937
0.00027081
0.00027224
0.00027368
0.00027512
0.00027658
0.00027803
0.0002795
0.00028096
0.00028244
0.00028392
0.0002854
0.00028689
0.00028839
0.0002899
0.0002914
0.00029291
0.00029444
0.00029595
0.00029749
0.00029903
0.00030057
0.00030212
0.00030367
0.00030523
0.00030679
0.00030837
0.00030994
0.00031152
0.00031312
0.00031471
0.0003163
0.00031792
0.00031952
0.00032115
0.00032276
0.0003244
0.00032603
0.00032767
0.00032931
0.00033097
0.00033263
0.00033429
0.00033596
0.00033764
0.00033932
0.00034101
0.0003427
0.00034439
0.00034611
0.00034781
0.00034953
0.00035126
0.00035298
0.00035472
0.00035646
0.0003582
0.00035995
0.00036172
0.00036348
0.00036524
0.00036703
0.0003688
0.00037059
0.00037239
0.00037418
0.00037599
0.0003778
0.00037962
0.00038144
0.00038327
0.0003851
0.00038695
0.00038879
0.00039064
0.00039251
0.00039436
0.00039624
0.00039811
0.00039999
0.00040189
0.00040377
0.00040568
0.00040758
0.00040949
0.00041141
0.00041333
0.00041526
0.0004172
0.00041914
0.00042108
0.00042304
0.000425
0.00042695
0.00042893
0.00043091
0.00043289
0.00043487
0.00043687
0.00043887
0.00044087
0.00044289
0.0004449
0.00044692
0.00044896
0.00045098
0.00045303
0.00045508
0.00045712
0.00045918
0.00046125
0.00046332
0.00046539
0.00046747
0.00046956
0.00047165
0.00047374
0.00047585
0.00047797
0.00048007
0.0004822
0.00048432
0.00048646
0.00048859
0.00049074
0.00049288
0.00049505
0.0004972
0.00049937
0.00050154
0.00050371
0.0005059
0.00050809
0.00051029
0.00051248
0.00051469
0.0005169
0.00051911
0.00052134
0.00052357
0.00052579
0.00052804
0.00053028
0.00053253
0.00053479
0.00053705
0.00053931
0.00054158
0.00054386
0.00054614
0.00054843
0.00055072
0.00055302
0.00055533
0.00055763
0.00055995
0.00056226
0.00056459
0.00056692
0.00056926
0.00057159
0.00057394
0.0005763
0.00057864
0.00058101
0.00058338
0.00058574
0.00058813
0.0005905
0.00059289
0.00059528
0.00059768
0.00060008
0.00060249
0.0006049
0.00060731
0.00060974
0.00061217
0.00061459
0.00061703
0.00061947
0.00062192
0.00062437
0.00062682
0.00062929
0.00063174
0.00063422
0.00063669
0.00063918
0.00064165
0.00064415
0.00064663
0.00064914
0.00065163
0.00065414
0.00065666
0.00065917
0.00066169
0.00066421
0.00066674
0.00066928
0.00067181
0.00067436
0.0006769
0.00067945
0.00068201
0.00068456
0.00068713
0.0006897
0.00069227
0.00069484
0.00069742
0.00070001
0.00070259
0.00070519
0.00070778
0.00071038
0.00071299
0.00071559
0.00071821
0.00072082
0.00072344
0.00072606
0.00072869
0.00073131
0.00073396
0.00073659
0.00073923
0.00074187
0.00074452
0.00074718
0.00074983
0.00075249
0.00075515
0.00075782
0.00076048
0.00076316
0.00076583
0.00076851
0.00077119
0.00077388
0.00077657
0.00077925
0.00078195
0.00078465
0.00078735
0.00079005
0.00079276
0.00079547
0.00079817
0.0008009
0.00080361
0.00080633
0.00080905
0.00081178
0.0008145
0.00081724
0.00081997
0.0008227
0.00082545
0.00082818
0.00083093
0.00083367
0.00083642
0.00083917
0.00084192
0.00084467
0.00084743
0.00085019
0.00085295
0.00085571
0.00085847
0.00086124
0.00086401
0.00086678
0.00086955
0.00087233
0.00087509
0.00087788
0.00088065
0.00088343
0.00088622
0.00088899
0.00089178
0.00089457
0.00089735
0.00090014
0.00090293
0.00090572
0.00090852
0.0009113
0.0009141
0.00091689
0.00091969
0.00092248
0.00092529
0.00092808
0.00093088
0.00093367
0.00093648
0.00093928
0.00094208
0.00094489
0.00094768
0.00095049
0.00095329
0.00095609
0.0009589
0.0009617
0.00096451
0.00096731
0.00097011
0.00097291
0.00097572
0.00097853
0.00098133
0.00098413
0.00098693
0.00098974
0.00099254
0.00099534
0.00099814
0.00100094
0.00100374
0.00100655
0.00100934
0.00101214
0.00101493
0.00101773
0.00102053
0.00102332
0.00102611
0.00102891
0.0010317
0.00103448
0.00103728
0.00104006
0.00104285
0.00104563
0.00104841
0.00105119
0.00105398
0.00105675
0.00105952
0.0010623
0.00106507
0.00106785
0.00107061
0.00107337
0.00107614
0.0010789
0.00108166
0.00108442
0.00108717
0.00108993
0.00109267
0.00109542
0.00109817
0.0011009
0.00110365
0.00110638
0.00110912
0.00111184
0.00111458
0.0011173
0.00112001
0.00112274
0.00112545
0.00112817
0.00113087
0.00113357
0.00113628
0.00113897
0.00114167
0.00114436
0.00114704
0.00114973
0.0011524
0.00115508
0.00115775
0.00116042
0.00116308
0.00116573
0.0011684
0.00117103
0.00117369
0.00117632
0.00117896
0.0011816
0.00118421
0.00118684
0.00118946
0.00119207
0.00119467
0.00119728
0.00119987
0.00120247
0.00120505
0.00120763
0.0012102
0.00121278
0.00121534
0.0012179
0.00122046
0.001223
0.00122554
0.00122808
0.00123061
0.00123313
0.00123565
0.00123816
0.00124067
0.00124316
0.00124566
0.00124814
0.00125063
0.00125309
0.00125556
0.00125803
0.00126047
0.00126292
0.00126536
0.0012678
0.00127021
0.00127264
0.00127504
0.00127745
0.00127984
0.00128224
0.00128461
0.00128699
0.00128935
0.00129171
0.00129406
0.0012964
0.00129874
0.00130106
0.00130338
0.00130569
0.00130799
0.00131029
0.00131257
0.00131484
0.00131712
0.00131937
0.00132163
0.00132386
0.0013261
0.00132833
0.00133054
0.00133274
0.00133494
0.00133713
0.00133931
0.00134148
0.00134364
0.00134579
0.00134792
0.00135006
0.00135219
0.00135429
0.00135639
0.00135849
0.00136057
0.00136264
0.0013647
0.00136676
0.00136879
0.00137083
0.00137284
0.00137486
0.00137686
0.00137884
0.00138082
0.00138279
0.00138475
0.00138669
0.00138862
0.00139055
0.00139246
0.00139436
0.00139625
0.00139813
0.00139999
0.00140185
0.0014037
0.00140552
0.00140735
0.00140915
0.00141095
0.00141274
0.0014145
0.00141627
0.00141801
0.00141975
0.00142148
0.00142318
0.00142489
0.00142657
0.00142824
0.00142991
0.00143155
0.00143319
0.0014348
0.00143642
0.00143802
0.0014396
0.00144117
0.00144272
0.00144427
0.0014458
0.00144731
0.00144882
0.00145031
0.00145178
0.00145325
0.00145469
0.00145613
0.00145754
0.00145896
0.00146035
0.00146172
0.00146309
0.00146444
0.00146577
0.00146709
0.0014684
0.00146969
0.00147097
0.00147223
0.00147348
0.00147471
0.00147593
0.00147713
0.00147832
0.0014795
0.00148065
0.00148179
0.00148292
0.00148403
0.00148512
0.00148621
0.00148727
0.00148832
0.00148936
0.00149037
0.00149138
0.00149236
0.00149333
0.00149429
0.00149522
0.00149615
0.00149705
0.00149794
0.00149881
0.00149967
0.00150052
0.00150133
0.00150214
0.00150294
0.0015037
0.00150447
0.0015052
0.00150593
0.00150663
0.00150732
0.001508
0.00150865
0.00150928
0.00150991
0.00151052
0.00151109
0.00151167
0.00151222
0.00151275
0.00151327
0.00151376
0.00151425
0.00151471
0.00151515
0.00151558
0.00151599
0.00151638
0.00151675
0.00151711
0.00151745
0.00151776
0.00151807
0.00151835
0.00151861
0.00151885
0.00151908
0.0015193
0.00151948
0.00151965
0.0015198
0.00151994
0.00152005
0.00152015
0.00152023
0.00152028
0.00152032
0.00152035
0.00152034
0.00152033
0.00152029
0.00152023
0.00152015
0.00152007
0.00151994
0.00151982
0.00151966
0.00151949
0.00151929
0.00151909
0.00151885
0.0015186
0.00151833
0.00151804
0.00151773
0.0015174
0.00151705
0.00151667
0.00151629
0.00151588
0.00151545
0.001515
0.00151453
0.00151403
0.00151353
0.001513
0.00151244
0.00151188
0.00151128
0.00151067
0.00151003
0.00150939
0.00150871
0.00150801
0.0015073
0.00150657
0.00150581
0.00150503
0.00150424
0.00150342
0.00150258
0.00150172
0.00150084
0.00149994
0.00149901
0.00149808
0.00149711
0.00149612
0.00149512
0.00149409
0.00149305
0.00149197
0.00149089
0.00148977
0.00148864
0.00148749
0.00148632
0.00148512
0.0014839
0.00148266
0.0014814
0.00148013
0.00147882
0.00147749
0.00147615
0.00147479
0.0014734
0.00147198
0.00147056
0.00146911
0.00146763
0.00146614
0.00146462
0.00146308
0.00146152
0.00145994
0.00145834
0.00145672
0.00145507
0.0014534
0.00145171
0.00145
0.00144827
0.00144652
0.00144474
0.00144294
0.00144113
0.00143928
0.00143742
0.00143554
0.00143363
0.0014317
0.00142976
0.00142778
0.00142579
0.00142378
0.00142174
0.00141969
0.0014176
0.0014155
0.00141338
0.00141124
0.00140907
0.00140688
0.00140467
0.00140244
0.00140018
0.00139791
0.00139562
0.00139329
0.00139096
0.00138859
0.00138621
0.0013838
0.00138138
0.00137893
0.00137646
0.00137396
0.00137146
0.00136891
0.00136636
0.00136378
0.00136118
0.00135856
0.00135592
0.00135325
0.00135056
0.00134786
0.00134512
0.00134238
0.0013396
0.00133681
0.00133399
0.00133115
0.0013283
0.00132542
0.00132251
0.00131959
0.00131665
0.00131368
0.0013107
0.00130768
0.00130466
0.00130161
0.00129853
0.00129544
0.00129233
0.00128919
0.00128603
0.00128286
0.00127966
0.00127644
0.00127319
0.00126994
0.00126665
0.00126335
0.00126002
0.00125668
0.00125331
0.00124993
0.00124652
0.00124308
0.00123964
0.00123617
0.00123268
0.00122916
0.00122564
0.00122208
0.00121851
0.00121491
0.0012113
0.00120767
0.00120401
0.00120034
0.00119664
0.00119293
0.00118919
0.00118544
0.00118166
0.00117786
0.00117405
0.00117022
0.00116635
0.00116248
0.00115859
0.00115467
0.00115074
0.00114678
0.00114281
0.00113881
0.0011348
0.00113077
0.00112671
0.00112265
0.00111855
0.00111444
0.00111032
0.00110616
0.001102
0.00109781
0.00109361
0.00108938
0.00108513
0.00108088
0.00107659
0.00107229
0.00106798
0.00106364
0.00105928
0.00105491
0.00105051
0.00104611
0.00104167
0.00103723
0.00103276
0.00102828
0.00102377
0.00101926
0.00101472
0.00101016
0.00100559
0.001001
0.00099639
0.00099176
0.00098712
0.00098246
0.00097778
0.00097309
0.00096837
0.00096364
0.00095889
0.00095413
0.00094935
0.00094455
0.00093973
0.0009349
0.00093006
0.00092518
0.00092031
0.00091541
0.00091049
0.00090557
0.00090061
0.00089566
0.00089067
0.00088568
0.00088067
0.00087564
0.0008706
0.00086554
0.00086047
0.00085538
0.00085027
0.00084516
0.00084002
0.00083487
0.0008297
0.00082452
0.00081933
0.00081412
0.00080889
0.00080365
0.0007984
0.00079313
0.00078785
0.00078255
0.00077724
0.00077191
0.00076657
0.00076122
0.00075586
0.00075047
0.00074507
0.00073967
0.00073425
0.00072881
0.00072336
0.0007179
0.00071242
0.00070694
0.00070144
0.00069592
0.00069039
0.00068486
0.0006793
0.00067374
0.00066816
0.00066258
0.00065697
0.00065136
0.00064574
0.00064009
0.00063445
0.00062879
0.00062312
0.00061743
0.00061174
0.00060603
0.00060031
0.00059459
0.00058884
0.0005831
0.00057733
0.00057156
0.00056578
0.00055999
0.00055418
0.00054837
0.00054255
0.00053671
0.00053087
0.00052501
0.00051916
0.00051328
0.00050739
0.00050151
0.0004956
0.00048969
0.00048377
0.00047785
0.00047191
0.00046596
0.00046
0.00045404
0.00044807
0.00044209
0.0004361
0.00043011
0.0004241
0.00041809
0.00041206
0.00040604
0.0004
0.00039396
0.00038791
0.00038185
0.00037579
0.00036972
0.00036363
0.00035755
0.00035146
0.00034536
0.00033925
0.00033314
0.00032702
0.0003209
0.00031477
0.00030863
0.00030249
0.00029635
0.00029019
0.00028403
0.00027787
0.00027169
0.00026553
0.00025934
0.00025316
0.00024698
0.00024077
0.00023459
0.00022837
0.00022217
0.00021597
0.00020974
0.00020353
0.0001973
0.00019108
0.00018485
0.00017861
0.00017238
0.00016614
0.00015989
0.00015365
0.0001474
0.00014114
0.0001349
0.00012863
0.00012238
0.00011611
0.00010985
0.00010359
9.731e-05
9.105e-05
8.477e-05
7.85e-05
7.223e-05
6.595e-05
5.967e-05
5.34e-05
4.711e-05
4.084e-05
3.455e-05
2.828e-05
2.199e-05
1.57e-05
9.43e-06
3.14e-06
-3.14e-06
-9.43e-06
-1.57e-05
-2.199e-05
-2.828e-05
-3.455e-05
-4.084e-05
-4.711e-05
-5.34e-05
-5.967e-05
-6.595e-05
-7.223e-05
-7.85e-05
-8.477e-05
-9.105e-05
-9.731e-05
-0.00010359
-0.00010985
-0.00011611
-0.00012238
-0.00012863
-0.0001349
-0.00014114
-0.0001474
-0.00015365
-0.00015989
-0.00016614
-0.00017238
-0.00017861
-0.00018485
-0.00019108
-0.0001973
-0.00020353
-0.00020974
-0.00021597
-0.00022217
-0.00022837
-0.00023459
-0.00024077
-0.00024698
-0.00025316
-0.00025934
-0.00026553
-0.00027169
-0.00027787
-0.00028403
-0.00029019
-0.00029635
-0.00030249
-0.00030863
-0.00031477
-0.0003209
-0.00032702
-0.00033314
-0.00033925
-0.00034536
-0.00035146
-0.00035755
-0.00036363
-0.00036972
-0.00037579
-0.00038185
-0.00038791
-0.00039396
-0.0004
-0.00040604
-0.00041206
-0.00041809
-0.0004241
-0.00043011
-0.0004361
-0.00044209
-0.00044807
-0.00045404
-0.00046
-0.00046596
-0.00047191
-0.00047785
-0.00048377
-0.00048969
-0.0004956
-0.00050151
-0.00050739
-0.00051328
-0.00051916
-0.00052501
-0.00053087
-0.00053671
-0.00054255
-0.00054837
-0.00055418
-0.00055999
-0.00056578
-0.00057156
-0.00057733
-0.0005831
-0.00058884
-0.00059459
-0.00060031
-0.00060603
-0.00061174
-0.00061743
-0.00062312
-0.00062879
-0.00063445
-0.00064009
-0.00064574
-0.00065136
-0.00065697
-0.00066258
-0.00066816
-0.00067374
-0.0006793
-0.00068486
-0.00069039
-0.00069592
-0.00070144
-0.00070694
-0.00071242
-0.0007179
-0.00072336
-0.00072881
-0.00073425
-0.00073967
-0.00074507
-0.00075047
-0.00075586
-0.00076122
-0.00076657
-0.00077191
-0.00077724
-0.00078255
-0.00078785
-0.00079313
-0.0007984
-0.00080365
-0.00080889
-0.00081412
-0.00081933
-0.00082452
-0.0008297
-0.00083487
-0.00084002
-0.00084516
-0.00085027
-0.00085538
-0.00086047
-0.00086554
-0.0008706
-0.00087564
-0.00088067
-0.00088568
-0.00089067
-0.00089566
-0.00090061
-0.00090557
-0.00091049
-0.00091541
-0.00092031
-0.00092518
-0.00093006
-0.0009349
-0.00093973
-0.00094455
-0.00094935
-0.00095413
-0.00095889
-0.00096364
-0.00096837
-0.00097309
-0.00097778
-0.00098246
-0.00098712
-0.00099176
-0.00099639
-0.001001
-0.00100559
-0.00101016
-0.00101472
-0.00101926
-0.00102377
-0.00102828
-0.00103276
-0.00103723
-0.00104167
-0.00104611
-0.00105051
-0.00105491
-0.00105928
-0.00106364
-0.00106798
-0.00107229
-0.00107659
-0.00108088
-0.00108513
-0.00108938
-0.00109361
-0.00109781
-0.001102
-0.00110616
-0.00111032
-0.00111444
-0.00111855
-0.00112265
-0.00112671
-0.00113077
-0.0011348
-0.00113881
-0.00114281
-0.00114678
-0.00115074
-0.00115467
-0.00115859
-0.00116248
-0.00116635
-0.00117022
-0.00117405
-0.00117786
-0.00118166
-0.00118544
-0.00118919
-0.00119293
-0.00119664
-0.00120034
-0.00120401
-0.00120767
-0.0012113
-0.00121491
-0.00121851
-0.00122208
-0.00122564
-0.00122916
-0.00123268
-0.00123617
-0.00123964
-0.00124308
-0.00124652
-0.00124993
-0.00125331
-0.00125668
-0.00126002
-0.00126335
-0.00126665
-0.00126994
-0.00127319
-0.00127644
-0.00127966
-0.00128286
-0.00128603
-0.00128919
-0.00129233
-0.00129544
-0.00129853
-0.00130161
-0.00130466
-0.00130768
-0.0013107
-0.00131368
-0.00131665
-0.00131959
-0.00132251
-0.00132542
-0.0013283
-0.00133115
-0.00133399
-0.00133681
-0.0013396
-0.00134238
-0.00134512
-0.00134786
-0.00135056
-0.00135325
-0.00135592
-0.00135856
-0.00136118
-0.00136378
-0.00136636
-0.00136891
-0.00137146
-0.00137396
-0.00137646
-0.00137893
-0.00138138
-0.0013838
-0.00138621
-0.00138859
-0.00139096
-0.00139329
-0.00139562
-0.00139791
-0.00140018
-0.00140244
-0.00140467
-0.00140688
-0.00140907
-0.00141124
-0.00141338
-0.0014155
-0.0014176
-0.00141969
-0.00142174
-0.00142378
-0.00142579
-0.00142778
-0.00142976
-0.0014317
-0.00143363
-0.00143554
-0.00143742
-0.00143928
-0.00144113
-0.00144294
-0.00144474
-0.00144652
-0.00144827
-0.00145
-0.00145171
-0.0014534
-0.00145507
-0.00145672
-0.00145834
-0.00145994
-0.00146152
-0.00146308
-0.00146462
-0.00146614
-0.00146763
-0.00146911
-0.00147056
-0.00147198
-0.0014734
-0.00147479
-0.00147615
-0.00147749
-0.00147882
-0.00148013
-0.0014814
-0.00148266
-0.0014839
-0.00148512
-0.00148632
-0.00148749
-0.00148864
-0.00148977
-0.00149089
-0.00149197
-0.00149305
-0.00149409
-0.00149512
-0.00149612
-0.00149711
-0.00149808
-0.00149901
-0.00149994
-0.00150084
-0.00150172
-0.00150258
-0.00150342
-0.00150424
-0.00150503
-0.00150581
-0.00150657
-0.0015073
-0.00150801
-0.00150871
-0.00150939
-0.00151003
-0.00151067
-0.00151128
-0.00151188
-0.00151244
-0.001513
-0.00151353
-0.00151403
-0.00151453
