# Pulseq sequence file
# Created by PyPulseq

[VERSION]
major 1
minor 3
revision 1

[DEFINITIONS]
Name gre_b0mapping_hashed 
FOV 0.22 0.22 0.002 
Slice_Thickness 0.002000 

# Format of blocks:
#  #  D RF  GX  GY  GZ ADC EXT
[BLOCKS]
   1  1  0   0   0   0  1  0
   2  1  0   0   0   0  1  0
   3  1  0   0   0   0  1  0
   4  1  0   0   0   0  1  0
   5  1  0   0   0   0  1  0
   6  1  0   0   0   0  1  0
   7  1  0   0   0   0  1  0
   8  1  0   0   0   0  1  0
   9  1  0   0   0   0  1  0
  10  1  0   0   0   0  1  0
  11  1  0   0   0   0  1  0
  12  1  0   0   0   0  1  0
  13  1  0   0   0   0  1  0
  14  1  0   0   0   0  1  0
  15  1  0   0   0   0  1  0
  16  1  0   0   0   0  1  0
  17  2  1   0   0   1  0  0
  18  0  0   2   3   4  0  0
  19  3  0   0   0   0  0  0
  20  0  0   5   0   0  0  0
  21  0  0   6   0   0  0  0
  22  4  0   0   0   0  0  0
  23  0  0   5   0   0  0  0
  24  0  0   7   8   9  0  0
  25  2  2   0   0   1  0  0
  26  0  0   2   3   4  0  0
  27  3  0   0   0   0  0  0
  28  0  0   5   0   0  0  0
  29  0  0   6   0   0  0  0
  30  4  0   0   0   0  0  0
  31  0  0   5   0   0  0  0
  32  0  0   7   8   9  0  0
  33  2  3   0   0   1  0  0
  34  0  0   2   3   4  0  0
  35  3  0   0   0   0  0  0
  36  0  0   5   0   0  0  0
  37  0  0   6   0   0  0  0
  38  4  0   0   0   0  0  0
  39  0  0   5   0   0  0  0
  40  0  0   7   8   9  0  0
  41  2  4   0   0   1  0  0
  42  0  0   2   3   4  0  0
  43  3  0   0   0   0  0  0
  44  0  0   5   0   0  0  0
  45  0  0   6   0   0  0  0
  46  4  0   0   0   0  0  0
  47  0  0   5   0   0  0  0
  48  0  0   7   8   9  0  0
  49  2  5   0   0   1  0  0
  50  0  0   2   3   4  0  0
  51  3  0   0   0   0  0  0
  52  0  0   5   0   0  0  0
  53  0  0   6   0   0  0  0
  54  4  0   0   0   0  0  0
  55  0  0   5   0   0  0  0
  56  0  0   7   8   9  0  0
  57  2  6   0   0   1  0  0
  58  0  0   2   3   4  0  0
  59  3  0   0   0   0  0  0
  60  0  0   5   0   0  0  0
  61  0  0   6   0   0  0  0
  62  4  0   0   0   0  0  0
  63  0  0   5   0   0  0  0
  64  0  0   7   8   9  0  0
  65  2  7   0   0   1  0  0
  66  0  0   2   3   4  0  0
  67  3  0   0   0   0  0  0
  68  0  0   5   0   0  0  0
  69  0  0   6   0   0  0  0
  70  4  0   0   0   0  0  0
  71  0  0   5   0   0  0  0
  72  0  0   7   8   9  0  0
  73  2  8   0   0   1  0  0
  74  0  0   2   3   4  0  0
  75  3  0   0   0   0  0  0
  76  0  0   5   0   0  0  0
  77  0  0   6   0   0  0  0
  78  4  0   0   0   0  0  0
  79  0  0   5   0   0  0  0
  80  0  0   7   8   9  0  0
  81  2  9   0   0   1  0  0
  82  0  0   2   3   4  0  0
  83  3  0   0   0   0  0  0
  84  0  0   5   0   0  0  0
  85  0  0   6   0   0  0  0
  86  4  0   0   0   0  0  0
  87  0  0   5   0   0  0  0
  88  0  0   7   8   9  0  0
  89  2 10   0   0   1  0  0
  90  0  0   2   3   4  0  0
  91  3  0   0   0   0  0  0
  92  0  0   5   0   0  0  0
  93  0  0   6   0   0  0  0
  94  4  0   0   0   0  0  0
  95  0  0   5   0   0  0  0
  96  0  0   7   8   9  0  0
  97  2  6   0   0   1  0  0
  98  0  0   2   3   4  0  0
  99  3  0   0   0   0  0  0
 100  0  0   5   0   0  0  0
 101  0  0   6   0   0  0  0
 102  4  0   0   0   0  0  0
 103  0  0   5   0   0  0  0
 104  0  0   7   8   9  0  0
 105  2 11   0   0   1  0  0
 106  0  0   2   3   4  0  0
 107  3  0   0   0   0  0  0
 108  0  0   5   0   0  0  0
 109  0  0   6   0   0  0  0
 110  4  0   0   0   0  0  0
 111  0  0   5   0   0  0  0
 112  0  0   7   8   9  0  0
 113  2 12   0   0   1  0  0
 114  0  0   2   3   4  0  0
 115  3  0   0   0   0  0  0
 116  0  0   5   0   0  0  0
 117  0  0   6   0   0  0  0
 118  4  0   0   0   0  0  0
 119  0  0   5   0   0  0  0
 120  0  0   7   8   9  0  0
 121  2 13   0   0   1  0  0
 122  0  0   2   3   4  0  0
 123  3  0   0   0   0  0  0
 124  0  0   5   0   0  0  0
 125  0  0   6   0   0  0  0
 126  4  0   0   0   0  0  0
 127  0  0   5   0   0  0  0
 128  0  0   7   8   9  0  0
 129  2 14   0   0   1  0  0
 130  0  0   2   3   4  0  0
 131  3  0   0   0   0  0  0
 132  0  0   5   0   0  0  0
 133  0  0   6   0   0  0  0
 134  4  0   0   0   0  0  0
 135  0  0   5   0   0  0  0
 136  0  0   7   8   9  0  0
 137  2  1   0   0   1  0  0
 138  0  0   2   3   4  0  0
 139  3  0   0   0   0  0  0
 140  0  0   5   0   0  0  0
 141  0  0   6   0   0  0  0
 142  4  0   0   0   0  0  0
 143  0  0   5   0   0  0  0
 144  0  0   7   8   9  0  0
 145  2 15   0   0   1  0  0
 146  0  0   2   3   4  0  0
 147  3  0   0   0   0  0  0
 148  0  0   5   0   0  0  0
 149  0  0   6   0   0  0  0
 150  4  0   0   0   0  0  0
 151  0  0   5   0   0  0  0
 152  0  0   7   8   9  0  0
 153  2 16   0   0   1  0  0
 154  0  0   2   3   4  0  0
 155  3  0   0   0   0  0  0
 156  0  0   5   0   0  0  0
 157  0  0   6   0   0  0  0
 158  4  0   0   0   0  0  0
 159  0  0   5   0   0  0  0
 160  0  0   7   8   9  0  0
 161  2 13   0   0   1  0  0
 162  0  0   2   3   4  0  0
 163  3  0   0   0   0  0  0
 164  0  0   5   0   0  0  0
 165  0  0   6   0   0  0  0
 166  4  0   0   0   0  0  0
 167  0  0   5   0   0  0  0
 168  0  0   7   8   9  0  0
 169  2 17   0   0   1  0  0
 170  0  0   2   3   4  0  0
 171  3  0   0   0   0  0  0
 172  0  0   5   0   0  0  0
 173  0  0   6   0   0  0  0
 174  4  0   0   0   0  0  0
 175  0  0   5   0   0  0  0
 176  0  0   7   8   9  0  0
 177  2  5   0   0   1  0  0
 178  0  0   2   3   4  0  0
 179  3  0   0   0   0  0  0
 180  0  0   5   0   0  0  0
 181  0  0   6   0   0  0  0
 182  4  0   0   0   0  0  0
 183  0  0   5   0   0  0  0
 184  0  0   7   8   9  0  0
 185  2 18   0   0   1  0  0
 186  0  0   2   3   4  0  0
 187  3  0   0   0   0  0  0
 188  0  0   5   0   0  0  0
 189  0  0   6   0   0  0  0
 190  4  0   0   0   0  0  0
 191  0  0   5   0   0  0  0
 192  0  0   7   8   9  0  0
 193  2 19   0   0   1  0  0
 194  0  0   2   3   4  0  0
 195  3  0   0   0   0  0  0
 196  0  0   5   0   0  0  0
 197  0  0   6   0   0  0  0
 198  4  0   0   0   0  0  0
 199  0  0   5   0   0  0  0
 200  0  0   7   8   9  0  0
 201  2  9   0   0   1  0  0
 202  0  0   2   3   4  0  0
 203  3  0   0   0   0  0  0
 204  0  0   5   0   0  0  0
 205  0  0   6   0   0  0  0
 206  4  0   0   0   0  0  0
 207  0  0   5   0   0  0  0
 208  0  0   7   8   9  0  0
 209  2 20   0   0   1  0  0
 210  0  0   2   3   4  0  0
 211  3  0   0   0   0  0  0
 212  0  0   5   0   0  0  0
 213  0  0   6   0   0  0  0
 214  4  0   0   0   0  0  0
 215  0  0   5   0   0  0  0
 216  0  0   7   8   9  0  0
 217  2 10   0   0   1  0  0
 218  0  0   2   3   4  0  0
 219  3  0   0   0   0  0  0
 220  0  0   5   0   0  0  0
 221  0  0   6   0   0  0  0
 222  4  0   0   0   0  0  0
 223  0  0   5   0   0  0  0
 224  0  0   7   8   9  0  0
 225  2 18   0   0   1  0  0
 226  0  0   2   3   4  0  0
 227  3  0   0   0   0  0  0
 228  0  0   5   0   0  0  0
 229  0  0   6   0   0  0  0
 230  4  0   0   0   0  0  0
 231  0  0   5   0   0  0  0
 232  0  0   7   8   9  0  0
 233  2 21   0   0   1  0  0
 234  0  0   2   3   4  0  0
 235  3  0   0   0   0  0  0
 236  0  0   5   0   0  0  0
 237  0  0   6   0   0  0  0
 238  4  0   0   0   0  0  0
 239  0  0   5   0   0  0  0
 240  0  0   7   8   9  0  0
 241  2  4   0   0   1  0  0
 242  0  0   2   3   4  0  0
 243  3  0   0   0   0  0  0
 244  0  0   5   0   0  0  0
 245  0  0   6   0   0  0  0
 246  4  0   0   0   0  0  0
 247  0  0   5   0   0  0  0
 248  0  0   7   8   9  0  0
 249  2 22   0   0   1  0  0
 250  0  0   2   3   4  0  0
 251  3  0   0   0   0  0  0
 252  0  0   5   0   0  0  0
 253  0  0   6   0   0  0  0
 254  4  0   0   0   0  0  0
 255  0  0   5   0   0  0  0
 256  0  0   7   8   9  0  0
 257  2 14   0   0   1  0  0
 258  0  0   2   3   4  0  0
 259  3  0   0   0   0  0  0
 260  0  0   5   0   0  0  0
 261  0  0   6   0   0  0  0
 262  4  0   0   0   0  0  0
 263  0  0   5   0   0  0  0
 264  0  0   7   8   9  0  0
 265  2 15   0   0   1  0  0
 266  0  0   2   3   4  0  0
 267  3  0   0   0   0  0  0
 268  0  0   5   0   0  0  0
 269  0  0   6   0   0  0  0
 270  4  0   0   0   0  0  0
 271  0  0   5   0   0  0  0
 272  0  0   7   8   9  0  0
 273  2 23   0   0   1  0  0
 274  0  0   2   3   4  0  0
 275  3  0   0   0   0  0  0
 276  0  0   5   0   0  0  0
 277  0  0   6   0   0  0  0
 278  4  0   0   0   0  0  0
 279  0  0   5   0   0  0  0
 280  0  0   7   8   9  0  0
 281  2  2   0   0   1  0  0
 282  0  0   2   3   4  0  0
 283  3  0   0   0   0  0  0
 284  0  0   5   0   0  0  0
 285  0  0   6   0   0  0  0
 286  4  0   0   0   0  0  0
 287  0  0   5   0   0  0  0
 288  0  0   7   8   9  0  0
 289  2 22   0   0   1  0  0
 290  0  0   2   3   4  0  0
 291  3  0   0   0   0  0  0
 292  0  0   5   0   0  0  0
 293  0  0   6   0   0  0  0
 294  4  0   0   0   0  0  0
 295  0  0   5   0   0  0  0
 296  0  0   7   8   9  0  0
 297  2 17   0   0   1  0  0
 298  0  0   2   3   4  0  0
 299  3  0   0   0   0  0  0
 300  0  0   5   0   0  0  0
 301  0  0   6   0   0  0  0
 302  4  0   0   0   0  0  0
 303  0  0   5   0   0  0  0
 304  0  0   7   8   9  0  0
 305  2 11   0   0   1  0  0
 306  0  0   2   3   4  0  0
 307  3  0   0   0   0  0  0
 308  0  0   5   0   0  0  0
 309  0  0   6   0   0  0  0
 310  4  0   0   0   0  0  0
 311  0  0   5   0   0  0  0
 312  0  0   7   8   9  0  0
 313  2 24   0   0   1  0  0
 314  0  0   2   3   4  0  0
 315  3  0   0   0   0  0  0
 316  0  0   5   0   0  0  0
 317  0  0   6   0   0  0  0
 318  4  0   0   0   0  0  0
 319  0  0   5   0   0  0  0
 320  0  0   7   8   9  0  0
 321  2  7   0   0   1  0  0
 322  0  0   2   3   4  0  0
 323  3  0   0   0   0  0  0
 324  0  0   5   0   0  0  0
 325  0  0   6   0   0  0  0
 326  4  0   0   0   0  0  0
 327  0  0   5   0   0  0  0
 328  0  0   7   8   9  0  0
 329  2 20   0   0   1  0  0
 330  0  0   2   3   4  0  0
 331  3  0   0   0   0  0  0
 332  0  0   5   0   0  0  0
 333  0  0   6   0   0  0  0
 334  4  0   0   0   0  0  0
 335  0  0   5   0   0  0  0
 336  0  0   7   8   9  0  0
[RF]
1      127.781 1 2 200 0 0
2      127.781 1 2 200 0 2.04204
3      127.781 1 2 200 0 6.12611
4      127.781 1 2 200 0 5.96903
5      127.781 1 2 200 0 1.5708
6      127.781 1 2 200 0 5.49779
7      127.781 1 2 200 0 5.18363
8      127.781 1 2 200 0 0.628319
9      127.781 1 2 200 0 4.39823
10      127.781 1 2 200 0 3.92699
11      127.781 1 2 200 0 2.82743
12      127.781 1 2 200 0 2.19911
13      127.781 1 2 200 0 3.61283
14      127.781 1 2 200 0 0.785398
15      127.781 1 2 200 0 1.25664
16      127.781 1 2 200 0 4.55531
17      127.781 1 2 200 0 4.71239
18      127.781 1 2 200 0 0.471239
19      127.781 1 2 200 0 1.41372
20      127.781 1 2 200 0 3.14159
21      127.781 1 2 200 0 5.34071
22      127.781 1 2 200 0 2.35619
23      127.781 1 2 200 0 3.76991
24      127.781 1 2 200 0 2.98451

# Format of trapezoid gradients:
# id amplitude rise flat fall delay
# ..      Hz/m   us   us   us    us
[TRAP]
 1     1.25e+06 200  800 200   0
 2 -1.33391e+06 210    0 210 240
 3            0  10  380  10   0
 4  -1.4881e+06 240  180 240   0
 5       602410 100  830 100   0
 6 -1.47432e+06 240  140 240   0
 7  1.47059e+06 240  440 240   0
 8           -0  10  380  10   0
 9  1.48148e+06 240 1110 240   0
10 -1.13636e+06 180   40 180   0
11  1.13636e+06 180   40 180   0
12 -1.06719e+06 170   60 170   0
13  1.06719e+06 170   60 170   0
14 -1.00379e+06 160   80 160   0
15  1.00379e+06 160   80 160   0
16      -945455 150  100 150   0
17       945455 150  100 150   0
18      -891608 140  120 140   0
19       891608 140  120 140   0
20      -874126 140  120 140   0
21       874126 140  120 140   0
22      -824916 130  140 130   0
23       824916 130  140 130   0
24      -808081 130  140 130   0
25       808081 130  140 130   0
26      -762987 120  160 120   0
27       762987 120  160 120   0
28      -746753 120  160 120   0
29       746753 120  160 120   0
30      -730519 120  160 120   0
31       730519 120  160 120   0
32      -689655 110  180 110   0
33       689655 110  180 110   0
34      -673981 110  180 110   0
35       673981 110  180 110   0
36      -636364 100  200 100   0
37       636364 100  200 100   0
38      -621212 100  200 100   0
39       621212 100  200 100   0
40      -606061 100  200 100   0
41       606061 100  200 100   0
42      -571848  90  220  90   0
43       571848  90  220  90   0
44      -557185  90  220  90   0
45       557185  90  220  90   0
46      -542522  90  220  90   0
47       542522  90  220  90   0
48      -527859  90  220  90   0
49       527859  90  220  90   0
50      -497159  80  240  80   0
51       497159  80  240  80   0
52      -482955  80  240  80   0
53       482955  80  240  80   0
54      -468750  80  240  80   0
55       468750  80  240  80   0
56      -440771  70  260  70   0
57       440771  70  260  70   0
58      -426997  70  260  70   0
59       426997  70  260  70   0
60      -413223  70  260  70   0
61       413223  70  260  70   0
62      -399449  70  260  70   0
63       399449  70  260  70   0
64      -374332  60  280  60   0
65       374332  60  280  60   0
66      -360963  60  280  60   0
67       360963  60  280  60   0
68      -347594  60  280  60   0
69       347594  60  280  60   0
70      -334225  60  280  60   0
71       334225  60  280  60   0
72      -311688  50  300  50   0
73       311688  50  300  50   0
74      -298701  50  300  50   0
75       298701  50  300  50   0
76      -285714  50  300  50   0
77       285714  50  300  50   0
78      -272727  50  300  50   0
79       272727  50  300  50   0
80      -252525  40  320  40   0
81       252525  40  320  40   0
82      -239899  40  320  40   0
83       239899  40  320  40   0
84      -227273  40  320  40   0
85       227273  40  320  40   0
86      -214646  40  320  40   0
87       214646  40  320  40   0
88      -202020  40  320  40   0
89       202020  40  320  40   0
90      -184275  30  340  30   0
91       184275  30  340  30   0
92      -171990  30  340  30   0
93       171990  30  340  30   0
94      -159705  30  340  30   0
95       159705  30  340  30   0
96      -147420  30  340  30   0
97       147420  30  340  30   0
98      -135135  30  340  30   0
99       135135  30  340  30   0
100      -119617  20  360  20   0
101       119617  20  360  20   0
102      -107656  20  360  20   0
103       107656  20  360  20   0
104     -95693.8  20  360  20   0
105      95693.8  20  360  20   0
106     -83732.1  20  360  20   0
107      83732.1  20  360  20   0
108     -71770.3  20  360  20   0
109      71770.3  20  360  20   0
110     -58275.1  10  380  10   0
111      58275.1  10  380  10   0
112       -46620  10  380  10   0
113        46620  10  380  10   0
114       -34965  10  380  10   0
115        34965  10  380  10   0
116       -23310  10  380  10   0
117        23310  10  380  10   0
118       -11655  10  380  10   0
119        11655  10  380  10   0

# Format of ADC events:
# id num dwell delay freq phase
# ..  ..    ns    us   Hz   rad
[ADC]
1 256 3786 0 0 0
2 220 3786 100 0 3.14159
3 220 3786 100 0 5.18363
4 220 3786 100 0 2.98451
5 220 3786 100 0 2.82743
6 220 3786 100 0 4.71239
7 220 3786 100 0 2.35619
8 220 3786 100 0 2.04204
9 220 3786 100 0 3.76991
10 220 3786 100 0 1.25664
11 220 3786 100 0 0.785398
12 220 3786 100 0 5.96903
13 220 3786 100 0 5.34071
14 220 3786 100 0 0.471239
15 220 3786 100 0 3.92699
16 220 3786 100 0 4.39823
17 220 3786 100 0 1.41372
18 220 3786 100 0 1.5708
19 220 3786 100 0 3.61283
20 220 3786 100 0 4.55531
21 220 3786 100 0 0
22 220 3786 100 0 2.19911
23 220 3786 100 0 5.49779
24 220 3786 100 0 0.628319
25 220 3786 100 0 6.12611

# Format of delays:
# id delay (us)
[DELAYS]
1 1970
2 1200
3 260
4 390

# Sequence Shapes
[SHAPES]

shape_id 1
num_samples 800
0
3e-07
7e-07
1.5e-06
2.4e-06
3.5e-06
5e-06
6.7e-06
8.6e-06
1.08e-05
1.32e-05
1.58e-05
1.88e-05
2.2e-05
2.54e-05
2.91e-05
3.31e-05
3.74e-05
4.18e-05
4.66e-05
5.16e-05
5.69e-05
6.24e-05
6.84e-05
7.44e-05
8.08e-05
8.75e-05
9.44e-05
0.0001016
0.0001091
0.0001169
0.0001249
0.0001333
0.0001418
0.0001508
0.0001599
0.0001694
0.0001792
0.0001891
0.0001995
0.00021
0.0002209
0.0002321
0.0002436
0.0002552
0.0002673
0.0002795
0.0002922
0.000305
0.0003181
0.0003316
0.0003453
0.0003593
0.0003735
0.0003881
0.000403
0.0004181
0.0004334
0.0004492
0.0004651
0.0004813
0.0004978
0.0005146
0.0005317
0.0005489
0.0005666
0.0005844
0.0006026
0.0006209
0.0006397
0.0006585
0.0006777
0.0006972
0.0007168
0.0007368
0.000757
0.0007775
0.0007982
0.0008192
0.0008403
0.0008618
0.0008835
0.0009054
0.0009276
0.00095
0.0009726
0.0009955
0.0010185
0.0010419
0.0010654
0.0010891
0.0011131
0.0011373
0.0011617
0.0011862
0.001211
0.0012361
0.0012612
0.0012866
0.0013121
0.0013379
0.0013639
0.00139
0.0014163
0.0014427
0.0014694
0.0014962
0.0015231
0.0015503
0.0015775
0.001605
0.0016325
0.0016603
0.0016881
0.0017161
0.0017442
0.0017725
0.0018008
0.0018293
0.0018579
0.0018866
0.0019154
0.0019443
0.0019733
0.0020025
0.0020316
0.0020608
0.0020902
0.0021196
0.0021491
0.0021787
0.0022082
0.0022379
0.0022676
0.0022974
0.0023271
0.002357
0.0023868
0.0024168
0.0024466
0.0024765
0.0025065
0.0025363
0.0025664
0.0025962
0.0026262
0.002656
0.002686
0.0027157
0.0027457
0.0027754
0.0028051
0.0028348
0.0028645
0.0028941
0.0029236
0.0029531
0.0029824
0.0030118
0.0030409
0.0030702
0.0030991
0.0031281
0.0031569
0.0031857
0.0032143
0.0032428
0.0032711
0.0032994
0.0033275
0.0033554
0.0033832
0.0034109
0.0034384
0.0034657
0.0034929
0.0035199
0.0035467
0.0035734
0.0035997
0.0036261
0.003652
0.0036779
0.0037036
0.0037289
0.0037542
0.0037791
0.0038039
0.0038283
0.0038526
0.0038767
0.0039003
0.0039239
0.0039472
0.0039701
0.0039929
0.0040152
0.0040374
0.0040593
0.0040809
0.0041021
0.0041231
0.0041438
0.0041642
0.0041842
0.004204
0.0042233
0.0042425
0.0042612
0.0042796
0.0042976
0.0043154
0.0043328
0.0043498
0.0043665
0.0043828
0.0043987
0.0044142
0.0044295
0.0044443
0.0044587
0.0044728
0.0044864
0.0044996
0.0045126
0.0045249
0.0045371
0.0045487
0.0045599
0.0045707
0.0045812
0.0045911
0.0046006
0.0046098
0.0046185
0.0046267
0.0046346
0.0046419
0.0046489
0.0046553
0.0046614
0.004667
0.004672
0.0046768
0.004681
0.0046847
0.004688
0.0046908
0.0046931
0.0046951
0.0046964
0.0046973
0.0046978
0.0046978
0
0.0046973
0.0046962
0.0046948
0.0046928
0.0046903
0.0046874
0.0046839
0.00468
0.0046756
0.0046707
0.0046653
0.0046593
0.0046529
0.0046461
0.0046386
0.0046307
0.0046223
0.0046134
0.004604
0.004594
0.0045837
0.0045727
0.0045613
0.0045494
0.004537
0.004524
0.0045106
0.0044967
0.0044822
0.0044673
0.0044519
0.0044359
0.0044195
0.0044025
0.0043851
0.0043672
0.0043487
0.0043299
0.0043104
0.0042904
0.0042701
0.0042492
0.0042278
0.0042059
0.0041836
0.0041607
0.0041374
0.0041136
0.0040894
0.0040645
0.0040393
0.0040136
0.0039875
0.0039608
0.0039336
0.0039061
0.0038781
0.0038495
0.0038206
0.0037912
0.0037614
0.003731
0.0037004
0.0036691
0.0036375
0.0036054
0.003573
0.00354
0.0035067
0.0034729
0.0034387
0.0034041
0.0033692
0.0033337
0.0032979
0.0032617
0.003225
0.0031881
0.0031507
0.0031128
0.0030748
0.0030362
0.0029973
0.0029581
0.0029184
0.0028784
0.0028381
0.0027975
0.0027563
0.0027151
0.0026733
0.0026313
0.002589
0.0025462
0.0025033
0.00246
0.0024164
0.0023726
0.0023283
0.0022838
0.0022391
0.002194
0.0021488
0.0021031
0.0020573
0.0020113
0.0019648
0.0019183
0.0018715
0.0018244
0.0017771
0.0017296
0.0016819
0.001634
0.0015858
0.0015374
0.001489
0.0014402
0.0013913
0.0013423
0.001293
0.0012436
0.0011941
0.0011444
0.0010945
0.0010445
0.0009944
0.0009442
0.0008938
0.0008433
0.0007928
0.000742
0.0006913
0.0006405
0.0005895
0.0005385
0.0004874
0.0004363
0.000385
0.0003339
0.0002825
0.0002312
0.0001799
0.0001285
7.71e-05
2.57e-05
-2.57e-05
-7.71e-05
-0.0001285
-0.0001799
-0.0002312
-0.0002825
-0.0003339
-0.000385
-0.0004363
-0.0004874
-0.0005385
-0.0005895
-0.0006405
-0.0006913
-0.000742
-0.0007928
-0.0008433
-0.0008938
-0.0009442
-0.0009944
-0.0010445
-0.0010945
-0.0011444
-0.0011941
-0.0012436
-0.001293
-0.0013423
-0.0013913
-0.0014402
-0.001489
-0.0015374
-0.0015858
-0.001634
-0.0016819
-0.0017296
-0.0017771
-0.0018244
-0.0018715
-0.0019183
-0.0019648
-0.0020113
-0.0020573
-0.0021031
-0.0021488
-0.002194
-0.0022391
-0.0022838
-0.0023283
-0.0023726
-0.0024164
-0.00246
-0.0025033
-0.0025462
-0.002589
-0.0026313
-0.0026733
-0.0027151
-0.0027563
-0.0027975
-0.0028381
-0.0028784
-0.0029184
-0.0029581
-0.0029973
-0.0030362
-0.0030748
-0.0031128
-0.0031507
-0.0031881
-0.003225
-0.0032617
-0.0032979
-0.0033337
-0.0033692
-0.0034041
-0.0034387
-0.0034729
-0.0035067
-0.00354
-0.003573
-0.0036054
-0.0036375
-0.0036691
-0.0037004
-0.003731
-0.0037614
-0.0037912
-0.0038206
-0.0038495
-0.0038781
-0.0039061
-0.0039336
-0.0039608
-0.0039875
-0.0040136
-0.0040393
-0.0040645
-0.0040894
-0.0041136
-0.0041374
-0.0041607
-0.0041836
-0.0042059
-0.0042278
-0.0042492
-0.0042701
-0.0042904
-0.0043104
-0.0043299
-0.0043487
-0.0043672
-0.0043851
-0.0044025
-0.0044195
-0.0044359
-0.0044519
-0.0044673
-0.0044822
-0.0044967
-0.0045106
-0.004524
-0.004537
-0.0045494
-0.0045613
-0.0045727
-0.0045837
-0.004594
-0.004604
-0.0046134
-0.0046223
-0.0046307
-0.0046386
-0.0046461
-0.0046529
-0.0046593
-0.0046653
-0.0046707
-0.0046756
-0.00468
-0.0046839
-0.0046874
-0.0046903
-0.0046928
-0.0046948
-0.0046962
-0.0046973
-0.0046978
-0.0046978
0
-0.0046973
-0.0046964
-0.0046951
-0.0046931
-0.0046908
-0.004688
-0.0046847
-0.004681
-0.0046768
-0.004672
-0.004667
-0.0046614
-0.0046553
-0.0046489
-0.0046419
-0.0046346
-0.0046267
-0.0046185
-0.0046098
-0.0046006
-0.0045911
-0.0045812
-0.0045707
-0.0045599
-0.0045487
-0.0045371
-0.0045249
-0.0045126
-0.0044996
-0.0044864
-0.0044728
-0.0044587
-0.0044443
-0.0044295
-0.0044142
-0.0043987
-0.0043828
-0.0043665
-0.0043498
-0.0043328
-0.0043154
-0.0042976
-0.0042796
-0.0042612
-0.0042425
-0.0042233
-0.004204
-0.0041842
-0.0041642
-0.0041438
-0.0041231
-0.0041021
-0.0040809
-0.0040593
-0.0040374
-0.0040152
-0.0039929
-0.0039701
-0.0039472
-0.0039239
-0.0039003
-0.0038767
-0.0038526
-0.0038283
-0.0038039
-0.0037791
-0.0037542
-0.0037289
-0.0037036
-0.0036779
-0.003652
-0.0036261
-0.0035997
-0.0035734
-0.0035467
-0.0035199
-0.0034929
-0.0034657
-0.0034384
-0.0034109
-0.0033832
-0.0033554
-0.0033275
-0.0032994
-0.0032711
-0.0032428
-0.0032143
-0.0031857
-0.0031569
-0.0031281
-0.0030991
-0.0030702
-0.0030409
-0.0030118
-0.0029824
-0.0029531
-0.0029236
-0.0028941
-0.0028645
-0.0028348
-0.0028051
-0.0027754
-0.0027457
-0.0027157
-0.002686
-0.002656
-0.0026262
-0.0025962
-0.0025664
-0.0025363
-0.0025065
-0.0024765
-0.0024466
-0.0024168
-0.0023868
-0.002357
-0.0023271
-0.0022974
-0.0022676
-0.0022379
-0.0022082
-0.0021787
-0.0021491
-0.0021196
-0.0020902
-0.0020608
-0.0020316
-0.0020025
-0.0019733
-0.0019443
-0.0019154
-0.0018866
-0.0018579
-0.0018293
-0.0018008
-0.0017725
-0.0017442
-0.0017161
-0.0016881
-0.0016603
-0.0016325
-0.001605
-0.0015775
-0.0015503
-0.0015231
-0.0014962
-0.0014694
-0.0014427
-0.0014163
-0.00139
-0.0013639
-0.0013379
-0.0013121
-0.0012866
-0.0012612
-0.0012361
-0.001211
-0.0011862
-0.0011617
-0.0011373
-0.0011131
-0.0010891
-0.0010654
-0.0010419
-0.0010185
-0.0009955
-0.0009726
-0.00095
-0.0009276
-0.0009054
-0.0008835
-0.0008618
-0.0008403
-0.0008192
-0.0007982
-0.0007775
-0.000757
-0.0007368
-0.0007168
-0.0006972
-0.0006777
-0.0006585
-0.0006397
-0.0006209
-0.0006026
-0.0005844
-0.0005666
-0.0005489
-0.0005317
-0.0005146
-0.0004978
-0.0004813
-0.0004651
-0.0004492
-0.0004334
-0.0004181
-0.000403
-0.0003881
-0.0003735
-0.0003593
-0.0003453
-0.0003316
-0.0003181
-0.000305
-0.0002922
-0.0002795
-0.0002673
-0.0002552
-0.0002436
-0.0002321
-0.0002209
-0.00021
-0.0001995
-0.0001891
-0.0001792
-0.0001694
-0.0001599
-0.0001508
-0.0001418
-0.0001333
-0.0001249
-0.0001169
-0.0001091
-0.0001016
-9.44e-05
-8.75e-05
-8.08e-05
-7.44e-05
-6.84e-05
-6.24e-05
-5.69e-05
-5.16e-05
-4.66e-05
-4.18e-05
-3.74e-05
-3.31e-05
-2.91e-05
-2.54e-05
-2.2e-05
-1.88e-05
-1.58e-05
-1.32e-05
-1.08e-05
-8.6e-06
-6.7e-06
-5e-06
-3.5e-06
-2.4e-06
-1.5e-06
-7e-07
-3e-07
0

shape_id 2
num_samples 800
0
0
798


[SIGNATURE]
# This is the hash of the Pulseq file, calculated before the [SIGNATURE] section was added
# It can be reproduced/verified with md5sum if the file trimmed to the position right above [SIGNATURE]
# The new line character preceding [SIGNATURE] BELONGS to the signature (and needs to be sripped away for recalculating/verification)
Type md5
Hash df63f3773adc4e9676cda5f13209f95a