# Pulseq sequence file
# Created by PyPulseq

[VERSION]
major 1
minor 3
revision 1

[DEFINITIONS]
Name spiralout_gre_fatsat_3T_GE 
FOV 0.22 0.22 0.003 
Slice_Thickness 0.039000 

# Format of blocks:
#  #  D RF  GX  GY  GZ ADC EXT
[BLOCKS]
   1  1  1   0   0   0  0  0
   2  0  0   0   0   1  0  0
   3  2  2   0   0   2  0  0
   4  0  0   0   0   3  0  0
   5  3  0   0   0   0  0  0
   6  4  0   4   5   0  0  0
   7  0  0   6   7   1  0  0
   8  5  0   0   0   0  0  0
   9  1  3   0   0   0  0  0
  10  0  0   0   0   1  0  0
  11  2  2   0   0   2  0  0
  12  0  0   0   0   3  0  0
  13  3  0   0   0   0  0  0
  14  4  0   4   5   0  0  0
  15  0  0   6   7   1  0  0
  16  5  0   0   0   0  0  0
  17  1  4   0   0   0  0  0
  18  0  0   0   0   1  0  0
  19  2  2   0   0   2  0  0
  20  0  0   0   0   3  0  0
  21  3  0   0   0   0  0  0
  22  4  0   4   5   0  0  0
  23  0  0   6   7   1  0  0
  24  5  0   0   0   0  0  0
  25  1  5   0   0   0  0  0
  26  0  0   0   0   1  0  0
  27  2  2   0   0   2  0  0
  28  0  0   0   0   3  0  0
  29  3  0   0   0   0  0  0
  30  4  0   4   5   0  0  0
  31  0  0   6   7   1  0  0
  32  5  0   0   0   0  0  0
  33  1  6   0   0   0  0  0
  34  0  0   0   0   1  0  0
  35  2  2   0   0   2  0  0
  36  0  0   0   0   3  0  0
  37  3  0   0   0   0  0  0
  38  4  0   4   5   0  0  0
  39  0  0   6   7   1  0  0
  40  5  0   0   0   0  0  0
  41  1  7   0   0   0  0  0
  42  0  0   0   0   1  0  0
  43  2  2   0   0   2  0  0
  44  0  0   0   0   3  0  0
  45  3  0   0   0   0  0  0
  46  4  0   4   5   0  0  0
  47  0  0   6   7   1  0  0
  48  5  0   0   0   0  0  0
  49  1  8   0   0   0  0  0
  50  0  0   0   0   1  0  0
  51  2  2   0   0   2  0  0
  52  0  0   0   0   3  0  0
  53  3  0   0   0   0  0  0
  54  4  0   4   5   0  0  0
  55  0  0   6   7   1  0  0
  56  5  0   0   0   0  0  0
  57  1  9   0   0   0  0  0
  58  0  0   0   0   1  0  0
  59  2  2   0   0   2  0  0
  60  0  0   0   0   3  0  0
  61  3  0   0   0   0  0  0
  62  4  0   4   5   0  0  0
  63  0  0   6   7   1  0  0
  64  5  0   0   0   0  0  0
  65  1  1   0   0   0  0  0
  66  0  0   0   0   1  0  0
  67  2  2   0   0   2  0  0
  68  0  0   0   0   3  0  0
  69  3  0   0   0   0  0  0
  70  4  0   4   5   0  0  0
  71  0  0   6   7   1  0  0
  72  5  0   0   0   0  0  0
  73  1 10   0   0   0  0  0
  74  0  0   0   0   1  0  0
  75  2  2   0   0   2  0  0
  76  0  0   0   0   3  0  0
  77  3  0   0   0   0  0  0
  78  4  0   4   5   0  0  0
  79  0  0   6   7   1  0  0
  80  5  0   0   0   0  0  0
  81  1 11   0   0   0  0  0
  82  0  0   0   0   1  0  0
  83  2  2   0   0   2  0  0
  84  0  0   0   0   3  0  0
  85  3  0   0   0   0  0  0
  86  4  0   4   5   0  0  0
  87  0  0   6   7   1  0  0
  88  5  0   0   0   0  0  0
  89  1 12   0   0   0  0  0
  90  0  0   0   0   1  0  0
  91  2  2   0   0   2  0  0
  92  0  0   0   0   3  0  0
  93  3  0   0   0   0  0  0
  94  4  0   4   5   0  0  0
  95  0  0   6   7   1  0  0
  96  5  0   0   0   0  0  0
  97  1  5   0   0   0  0  0
  98  0  0   0   0   1  0  0
  99  2  2   0   0   2  0  0
 100  0  0   0   0   3  0  0
 101  3  0   0   0   0  0  0
 102  4  0   4   5   0  0  0
 103  0  0   6   7   1  0  0
 104  5  0   0   0   0  0  0
 105  1 11   0   0   0  0  0
 106  0  0   0   0   1  0  0
 107  2  2   0   0   2  0  0
 108  0  0   0   0   3  0  0
 109  3  0   0   0   0  0  0
 110  4  0   4   5   0  0  0
 111  0  0   6   7   1  0  0
 112  5  0   0   0   0  0  0
 113  1 13   0   0   0  0  0
 114  0  0   0   0   1  0  0
 115  2  2   0   0   2  0  0
 116  0  0   0   0   3  0  0
 117  3  0   0   0   0  0  0
 118  4  0   4   5   0  0  0
 119  0  0   6   7   1  0  0
 120  5  0   0   0   0  0  0
 121  1 14   0   0   0  0  0
 122  0  0   0   0   1  0  0
 123  2  2   0   0   2  0  0
 124  0  0   0   0   3  0  0
 125  3  0   0   0   0  0  0
 126  4  0   4   5   0  0  0
 127  0  0   6   7   1  0  0
 128  5  0   0   0   0  0  0
 129  1  9   0   0   0  0  0
 130  0  0   0   0   1  0  0
 131  2  2   0   0   2  0  0
 132  0  0   0   0   3  0  0
 133  3  0   0   0   0  0  0
 134  4  0   4   5   0  0  0
 135  0  0   6   7   1  0  0
 136  5  0   0   0   0  0  0
 137  1 10   0   0   0  0  0
 138  0  0   0   0   1  0  0
 139  2  2   0   0   2  0  0
 140  0  0   0   0   3  0  0
 141  3  0   0   0   0  0  0
 142  4  0   4   5   0  0  0
 143  0  0   6   7   1  0  0
 144  5  0   0   0   0  0  0
 145  1 15   0   0   0  0  0
 146  0  0   0   0   1  0  0
 147  2  2   0   0   2  0  0
 148  0  0   0   0   3  0  0
 149  3  0   0   0   0  0  0
 150  4  0   4   5   0  0  0
 151  0  0   6   7   1  0  0
 152  5  0   0   0   0  0  0
 153  1  6   0   0   0  0  0
 154  0  0   0   0   1  0  0
 155  2  2   0   0   2  0  0
 156  0  0   0   0   3  0  0
 157  3  0   0   0   0  0  0
 158  4  0   4   5   0  0  0
 159  0  0   6   7   1  0  0
 160  5  0   0   0   0  0  0
 161  1 12   0   0   0  0  0
 162  0  0   0   0   1  0  0
 163  2  2   0   0   2  0  0
 164  0  0   0   0   3  0  0
 165  3  0   0   0   0  0  0
 166  4  0   4   5   0  0  0
 167  0  0   6   7   1  0  0
 168  5  0   0   0   0  0  0
 169  1  7   0   0   0  0  0
 170  0  0   0   0   1  0  0
 171  2  2   0   0   2  0  0
 172  0  0   0   0   3  0  0
 173  3  0   0   0   0  0  0
 174  4  0   4   5   0  0  0
 175  0  0   6   7   1  0  0
 176  5  0   0   0   0  0  0
 177  1  3   0   0   0  0  0
 178  0  0   0   0   1  0  0
 179  2  2   0   0   2  0  0
 180  0  0   0   0   3  0  0
 181  3  0   0   0   0  0  0
 182  4  0   4   5   0  0  0
 183  0  0   6   7   1  0  0
 184  5  0   0   0   0  0  0
 185  1 16   0   0   0  0  0
 186  0  0   0   0   1  0  0
 187  2  2   0   0   2  0  0
 188  0  0   0   0   3  0  0
 189  3  0   0   0   0  0  0
 190  4  0   4   5   0  0  0
 191  0  0   6   7   1  0  0
 192  5  0   0   0   0  0  0
 193  1 14   0   0   0  0  0
 194  0  0   0   0   1  0  0
 195  2  2   0   0   2  0  0
 196  0  0   0   0   3  0  0
 197  3  0   0   0   0  0  0
 198  4  0   4   5   0  0  0
 199  0  0   6   7   1  0  0
 200  5  0   0   0   0  0  0
 201  1  3   0   0   0  0  0
 202  0  0   0   0   1  0  0
 203  2  2   0   0   2  0  0
 204  0  0   0   0   3  0  0
 205  3  0   0   0   0  0  0
 206  4  0   4   5   0  0  0
 207  0  0   6   7   1  0  0
 208  5  0   0   0   0  0  0
 209  1 15   0   0   0  0  0
 210  0  0   0   0   1  0  0
 211  2  2   0   0   2  0  0
 212  0  0   0   0   3  0  0
 213  3  0   0   0   0  0  0
 214  4  0   4   5   0  0  0
 215  0  0   6   7   1  0  0
 216  5  0   0   0   0  0  0
 217  1 17   0   0   0  0  0
 218  0  0   0   0   1  0  0
 219  2  2   0   0   2  0  0
 220  0  0   0   0   3  0  0
 221  3  0   0   0   0  0  0
 222  4  0   4   5   0  0  0
 223  0  0   6   7   1  0  0
 224  5  0   0   0   0  0  0
 225  1  6   0   0   0  0  0
 226  0  0   0   0   1  0  0
 227  2  2   0   0   2  0  0
 228  0  0   0   0   3  0  0
 229  3  0   0   0   0  0  0
 230  4  0   4   5   0  0  0
 231  0  0   6   7   1  0  0
 232  5  0   0   0   0  0  0
 233  1  4   0   0   0  0  0
 234  0  0   0   0   1  0  0
 235  2  2   0   0   2  0  0
 236  0  0   0   0   3  0  0
 237  3  0   0   0   0  0  0
 238  4  0   4   5   0  0  0
 239  0  0   6   7   1  0  0
 240  5  0   0   0   0  0  0
 241  1 13   0   0   0  0  0
 242  0  0   0   0   1  0  0
 243  2  2   0   0   2  0  0
 244  0  0   0   0   3  0  0
 245  3  0   0   0   0  0  0
 246  4  0   4   5   0  0  0
 247  0  0   6   7   1  0  0
 248  5  0   0   0   0  0  0
 249  1  9   0   0   0  0  0
 250  0  0   0   0   1  0  0
 251  2  2   0   0   2  0  0
 252  0  0   0   0   3  0  0
 253  3  0   0   0   0  0  0
 254  4  0   4   5   0  0  0
 255  0  0   6   7   1  0  0
 256  5  0   0   0   0  0  0
 257  1 16   0   0   0  0  0
 258  0  0   0   0   1  0  0
 259  2  2   0   0   2  0  0
 260  0  0   0   0   3  0  0
 261  3  0   0   0   0  0  0
 262  4  0   4   5   0  0  0
 263  0  0   6   7   1  0  0
 264  5  0   0   0   0  0  0
 265  1  8   0   0   0  0  0
 266  0  0   0   0   1  0  0
 267  2  2   0   0   2  0  0
 268  0  0   0   0   3  0  0
 269  3  0   0   0   0  0  0
 270  4  0   4   5   0  0  0
 271  0  0   6   7   1  0  0
 272  5  0   0   0   0  0  0
 273  1 11   0   0   0  0  0
 274  0  0   0   0   1  0  0
 275  2  2   0   0   2  0  0
 276  0  0   0   0   3  0  0
 277  3  0   0   0   0  0  0
 278  4  0   4   5   0  0  0
 279  0  0   6   7   1  0  0
 280  5  0   0   0   0  0  0
 281  1 17   0   0   0  0  0
 282  0  0   0   0   1  0  0
 283  2  2   0   0   2  0  0
 284  0  0   0   0   3  0  0
 285  3  0   0   0   0  0  0
 286  4  0   4   5   0  0  0
 287  0  0   6   7   1  0  0
 288  5  0   0   0   0  0  0
 289  1 17   0   0   0  0  0
 290  0  0   0   0   1  0  0
 291  2  2   0   0   2  0  0
 292  0  0   0   0   3  0  0
 293  3  0   0   0   0  0  0
 294  4  0   4   5   0  0  0
 295  0  0   6   7   1  0  0
 296  5  0   0   0   0  0  0
 297  1 11   0   0   0  0  0
 298  0  0   0   0   1  0  0
 299  2  2   0   0   2  0  0
 300  0  0   0   0   3  0  0
 301  3  0   0   0   0  0  0
 302  4  0   4   5   0  0  0
 303  0  0   6   7   1  0  0
 304  5  0   0   0   0  0  0
 305  1  8   0   0   0  0  0
 306  0  0   0   0   1  0  0
 307  2  2   0   0   2  0  0
 308  0  0   0   0   3  0  0
 309  3  0   0   0   0  0  0
 310  4  0   4   5   0  0  0
 311  0  0   6   7   1  0  0
 312  5  0   0   0   0  0  0
 313  1 16   0   0   0  0  0
 314  0  0   0   0   1  0  0
 315  2  2   0   0   2  0  0
 316  0  0   0   0   3  0  0
 317  3  0   0   0   0  0  0
 318  4  0   4   5   0  0  0
 319  0  0   6   7   1  0  0
 320  5  0   0   0   0  0  0
 321  1  9   0   0   0  0  0
 322  0  0   0   0   1  0  0
 323  2  2   0   0   2  0  0
 324  0  0   0   0   3  0  0
 325  3  0   0   0   0  0  0
 326  4  0   4   5   0  0  0
 327  0  0   6   7   1  0  0
 328  5  0   0   0   0  0  0
 329  1 13   0   0   0  0  0
 330  0  0   0   0   1  0  0
 331  2  2   0   0   2  0  0
 332  0  0   0   0   3  0  0
 333  3  0   0   0   0  0  0
 334  4  0   4   5   0  0  0
 335  0  0   6   7   1  0  0
 336  5  0   0   0   0  0  0
[RF]
1      92.4515 1 2 100 -407.395 0
2      34.0921 3 4 100 -6000 0
3      92.4515 1 2 100 -407.395 0.872665
4      92.4515 1 2 100 -407.395 2.61799
5      92.4515 1 2 100 -407.395 5.23599
6      92.4515 1 2 100 -407.395 2.44346
7      92.4515 1 2 100 -407.395 0.523599
8      92.4515 1 2 100 -407.395 5.75959
9      92.4515 1 2 100 -407.395 5.58505
10      92.4515 1 2 100 -407.395 1.5708
11      92.4515 1 2 100 -407.395 4.01426
12      92.4515 1 2 100 -407.395 1.0472
13      92.4515 1 2 100 -407.395 3.66519
14      92.4515 1 2 100 -407.395 4.18879
15      92.4515 1 2 100 -407.395 4.71239
16      92.4515 1 2 100 -407.395 2.0944
17      92.4515 1 2 100 -407.395 3.14159
18      34.0921 3 4 100 -3000 0
19      34.0921 3 4 100 0 0
20      34.0921 3 4 100 3000 0
21      34.0921 3 4 100 6000 0
22      34.0921 3 4 100 -4500 0
23      34.0921 3 4 100 -1500 0
24      34.0921 3 4 100 1500 0
25      34.0921 3 4 100 4500 0

# Format of arbitrary gradients:
# id amplitude shape_id delay
# ..      Hz/m     ....    us
[GRADIENTS]
4  1.27723e+06 5 20
5  1.27724e+06 6 20
8  1.27716e+06 7 20
9  1.27723e+06 8 20
12  1.27724e+06 9 20
13  1.27722e+06 10 20
16  1.27724e+06 11 20
17  1.27723e+06 12 20
20  1.27724e+06 13 20
21  1.27722e+06 14 20
24  1.27723e+06 15 20
25  1.27723e+06 16 20
28  1.27724e+06 17 20
29  1.27723e+06 18 20
32  1.27723e+06 19 20
33  1.27721e+06 20 20
36  1.27724e+06 21 20
37  1.27724e+06 22 20
40  1.27722e+06 23 20
41  1.27722e+06 24 20
44  1.27721e+06 25 20
45  1.27723e+06 26 20
48  1.27723e+06 27 20
49  1.27722e+06 28 20
52  1.27723e+06 29 20
53  1.27723e+06 30 20
56   1.2772e+06 31 20
57  1.27724e+06 32 20
60  1.27722e+06 33 20
61  1.27716e+06 34 20

# Format of trapezoid gradients:
# id amplitude rise flat fall delay
# ..      Hz/m   us   us   us    us
[TRAP]
 1  1.26709e+06 300  480 300 100
 2       333333  70 3000  70  30
 3 -1.24797e+06 250  160 250   0
 6  1.00207e+06 240    0 240 480
 7 -1.25132e+06 300   50 300 480
10       415690 100    0 100 480
11 -1.27671e+06 300   90 300 480
14      -822730 200    0 200 480
15 -1.27507e+06 300   70 300 480
18 -1.18003e+06 290    0 290 480
19 -1.21354e+06 300    0 300 480
22 -1.24514e+06 300   70 300 480
23      -879088 220    0 220 480
26 -1.24884e+06 300  100 300 480
27       178421  60    0  60 480
30 -1.25554e+06 300   60 300 480
31       925908 230    0 230 480
34 -1.16535e+06 280    0 280 480
35   1.2613e+06 300    0 300 480
38      -758860 190    0 190 480
39  1.25893e+06 300   80 300 480
42       483555 130    0 130 480
43  1.27097e+06 300   90 300 480
46  1.03615e+06 250    0 250 480
47  1.25664e+06 300   40 300 480
50  1.24371e+06 300   30 300 480
51  1.09599e+06 260    0 260 480
54  1.25858e+06 300   90 300 480
55       622585 150    0 150 480
58  1.24716e+06 300   90 300 480
59      -672532 170    0 170 480
62  1.24325e+06 300   20 300 480
63 -1.11955e+06 270    0 270 480

# Format of ADC events:
# id num dwell delay freq phase
# ..  ..    ns    us   Hz   rad
[ADC]
1 6500 1700 20 0 0

# Format of delays:
# id delay (us)
[DELAYS]
1 7130
2 3170
3 2750
4 11260
5 172680

# Sequence Shapes
[SHAPES]

shape_id 1
num_samples 7000
0.0313787
6.21e-05
6.23e-05
6.23e-05
0
6.25e-05
6.25e-05
0
6.27e-05
6.28e-05
6.28e-05
0
6.3e-05
6.31e-05
6.32e-05
6.33e-05
6.34e-05
6.35e-05
6.37e-05
6.37e-05
0
6.38e-05
6.4e-05
6.41e-05
6.41e-05
0
6.43e-05
6.44e-05
6.44e-05
0
6.46e-05
6.47e-05
6.49e-05
6.49e-05
0
6.5e-05
6.52e-05
6.52e-05
0
6.54e-05
6.54e-05
0
6.56e-05
6.57e-05
6.58e-05
6.59e-05
6.6e-05
6.61e-05
6.63e-05
6.63e-05
0
6.65e-05
6.65e-05
0
6.67e-05
6.68e-05
6.69e-05
6.7e-05
6.71e-05
6.73e-05
6.73e-05
0
6.75e-05
6.76e-05
6.76e-05
0
6.78e-05
6.8e-05
6.8e-05
0
6.81e-05
6.83e-05
6.83e-05
0
6.85e-05
6.86e-05
6.87e-05
6.88e-05
6.89e-05
6.91e-05
6.91e-05
0
6.93e-05
6.94e-05
6.95e-05
6.96e-05
6.97e-05
6.99e-05
6.99e-05
0
7.01e-05
7.02e-05
7.03e-05
7.04e-05
7.06e-05
7.06e-05
0
7.08e-05
7.09e-05
7.1e-05
7.11e-05
7.12e-05
7.14e-05
7.14e-05
0
7.16e-05
7.17e-05
7.19e-05
7.19e-05
0
7.21e-05
7.21e-05
0
7.23e-05
7.24e-05
7.26e-05
7.26e-05
0
7.28e-05
7.29e-05
7.3e-05
7.31e-05
7.32e-05
7.34e-05
7.35e-05
7.36e-05
7.37e-05
7.38e-05
7.4e-05
7.41e-05
7.42e-05
7.43e-05
7.44e-05
7.46e-05
7.47e-05
7.48e-05
7.49e-05
7.51e-05
7.51e-05
0
7.53e-05
7.54e-05
7.56e-05
7.56e-05
0
7.58e-05
7.59e-05
7.6e-05
7.62e-05
7.62e-05
0
7.64e-05
7.65e-05
7.67e-05
7.67e-05
0
7.69e-05
7.7e-05
7.72e-05
7.72e-05
0
7.74e-05
7.75e-05
7.76e-05
7.78e-05
7.79e-05
7.8e-05
7.81e-05
7.83e-05
7.83e-05
0
7.85e-05
7.87e-05
7.87e-05
0
7.89e-05
7.9e-05
7.92e-05
7.92e-05
0
7.94e-05
7.95e-05
7.97e-05
7.97e-05
0
7.99e-05
8.01e-05
8.01e-05
0
8.03e-05
8.04e-05
8.05e-05
8.07e-05
8.08e-05
8.09e-05
8.11e-05
8.11e-05
0
8.13e-05
8.15e-05
8.15e-05
0
8.17e-05
8.19e-05
8.19e-05
0
8.21e-05
8.22e-05
8.23e-05
8.25e-05
8.26e-05
8.28e-05
8.28e-05
0
8.3e-05
8.31e-05
8.33e-05
8.34e-05
8.35e-05
8.37e-05
8.37e-05
0
8.4e-05
8.4e-05
0
8.42e-05
8.43e-05
8.44e-05
8.46e-05
8.47e-05
8.49e-05
8.49e-05
0
8.51e-05
8.53e-05
8.54e-05
8.55e-05
8.56e-05
8.58e-05
8.59e-05
8.6e-05
8.62e-05
8.63e-05
8.65e-05
8.66e-05
8.67e-05
8.69e-05
8.69e-05
0
8.72e-05
8.72e-05
0
8.74e-05
8.76e-05
8.76e-05
0
8.78e-05
8.8e-05
8.81e-05
8.82e-05
8.83e-05
8.85e-05
8.86e-05
8.88e-05
8.89e-05
8.9e-05
8.92e-05
8.93e-05
8.95e-05
8.96e-05
8.97e-05
8.99e-05
9e-05
9.01e-05
9.03e-05
9.05e-05
9.05e-05
0
9.07e-05
9.09e-05
9.1e-05
9.11e-05
9.12e-05
9.15e-05
9.15e-05
0
9.17e-05
9.18e-05
9.2e-05
9.21e-05
9.22e-05
9.24e-05
9.26e-05
9.26e-05
0
9.29e-05
9.29e-05
0
9.31e-05
9.33e-05
9.33e-05
0
9.36e-05
9.36e-05
0
9.39e-05
9.39e-05
0
9.41e-05
9.43e-05
9.44e-05
9.45e-05
9.47e-05
9.48e-05
9.49e-05
9.52e-05
9.52e-05
0
9.54e-05
9.55e-05
9.57e-05
9.59e-05
9.59e-05
0
9.62e-05
9.62e-05
0
9.65e-05
9.65e-05
0
9.67e-05
9.69e-05
9.7e-05
9.71e-05
9.73e-05
9.75e-05
9.76e-05
9.77e-05
9.79e-05
9.8e-05
9.82e-05
9.83e-05
9.85e-05
9.86e-05
9.88e-05
9.89e-05
9.91e-05
9.92e-05
9.93e-05
9.96e-05
9.96e-05
0
9.98e-05
0.0001
0.0001001
0.0001003
0.0001004
0.0001005
0.0001008
0.0001008
0
0.000101
0.0001012
0.0001013
0.0001015
0.0001016
0.0001018
0.0001019
0.0001021
0.0001022
0.0001024
0.0001025
0.0001027
0.0001028
0.000103
0.0001031
0.0001033
0.0001035
0.0001036
0.0001037
0.000104
0.000104
0
0.0001042
0.0001044
0.0001045
0.0001047
0.0001048
0.000105
0.0001052
0.0001053
0.0001054
0.0001056
0.0001058
0.0001059
0.0001061
0.0001062
0.0001064
0.0001066
0.0001067
0.0001068
0.000107
0.0001072
0.0001073
0.0001075
0.0001077
0.0001078
0.0001079
0.0001081
0.0001083
0.0001085
0.0001086
0.0001087
0.0001089
0.0001091
0.0001092
0.0001094
0.0001096
0.0001097
0.0001098
0.0001101
0.0001101
0
0.0001104
0.0001105
0.0001107
0.0001108
0.000111
0.0001111
0.0001113
0.0001115
0.0001116
0.0001118
0.000112
0.0001121
0.0001123
0.0001125
0.0001126
0.0001127
0.000113
0.0001131
0.0001132
0.0001134
0.0001136
0.0001138
0.0001139
0.0001141
0.0001142
0.0001144
0.0001146
0.0001147
0.0001149
0.0001151
0.0001152
0.0001154
0.0001156
0.0001157
0.0001159
0.000116
0.0001162
0.0001164
0.0001166
0.0001167
0.0001169
0.000117
0.0001173
0.0001174
0.0001175
0.0001177
0.0001179
0.0001181
0.0001182
0.0001184
0.0001186
0.0001187
0.0001189
0.0001191
0.0001192
0.0001194
0.0001196
0.0001197
0.0001199
0.0001201
0.0001203
0.0001204
0.0001206
0.0001207
0.000121
0.0001211
0.0001213
0.0001214
0.0001216
0.0001218
0.000122
0.0001221
0.0001223
0.0001225
0.0001226
0.0001228
0.000123
0.0001232
0.0001233
0.0001235
0.0001237
0.0001239
0.000124
0.0001242
0.0001244
0.0001245
0.0001248
0.0001249
0.000125
0.0001253
0.0001254
0.0001256
0.0001258
0.0001259
0.0001261
0.0001263
0.0001265
0.0001266
0.0001269
0.000127
0.0001271
0.0001274
0.0001275
0.0001277
0.0001279
0.0001281
0.0001282
0.0001284
0.0001286
0.0001288
0.0001289
0.0001291
0.0001293
0.0001295
0.0001297
0.0001298
0.00013
0.0001302
0.0001304
0.0001305
0.0001308
0.0001309
0.0001311
0.0001313
0.0001314
0.0001316
0.0001318
0.000132
0.0001322
0.0001324
0.0001325
0.0001327
0.0001329
0.0001331
0.0001332
0.0001335
0.0001336
0.0001338
0.000134
0.0001342
0.0001343
0.0001345
0.0001348
0.0001349
0.000135
0.0001353
0.0001355
0.0001356
0.0001358
0.000136
0.0001362
0.0001364
0.0001365
0.0001367
0.000137
0.0001371
0.0001373
0.0001374
0.0001377
0.0001379
0.000138
0.0001382
0.0001384
0.0001386
0.0001388
0.0001389
0.0001392
0.0001393
0.0001396
0.0001397
0.0001399
0.00014
0.0001403
0.0001405
0.0001406
0.0001409
0.000141
0.0001412
0.0001414
0.0001416
0.0001418
0.0001419
0.0001422
0.0001423
0.0001426
0.0001427
0.0001429
0.0001431
0.0001433
0.0001435
0.0001437
0.0001438
0.0001441
0.0001442
0.0001445
0.0001446
0.0001448
0.000145
0.0001452
0.0001454
0.0001456
0.0001458
0.0001459
0.0001462
0.0001464
0.0001465
0.0001467
0.000147
0.0001471
0.0001473
0.0001475
0.0001477
0.0001479
0.0001481
0.0001483
0.0001485
0.0001487
0.0001488
0.0001491
0.0001492
0.0001495
0.0001496
0.0001499
0.00015
0.0001503
0.0001504
0.0001506
0.0001508
0.0001511
0.0001512
0.0001514
0.0001516
0.0001518
0.000152
0.0001522
0.0001524
0.0001526
0.0001528
0.0001529
0.0001532
0.0001534
0.0001536
0.0001538
0.0001539
0.0001542
0.0001544
0.0001546
0.0001547
0.000155
0.0001552
0.0001553
0.0001556
0.0001558
0.0001559
0.0001562
0.0001564
0.0001565
0.0001568
0.000157
0.0001572
0.0001573
0.0001576
0.0001578
0.0001579
0.0001582
0.0001584
0.0001586
0.0001588
0.0001589
0.0001592
0.0001594
0.0001596
0.0001598
0.00016
0.0001602
0.0001604
0.0001606
0.0001608
0.000161
0.0001612
0.0001615
0.0001616
0.0001618
0.000162
0.0001623
0.0001624
0.0001627
0.0001628
0.0001631
0.0001632
0.0001635
0.0001637
0.0001638
0.0001641
0.0001643
0.0001645
0.0001647
0.0001649
0.0001651
0.0001653
0.0001656
0.0001657
0.0001659
0.0001662
0.0001663
0.0001666
0.0001668
0.000167
0.0001671
0.0001674
0.0001676
0.0001678
0.0001681
0.0001682
0.0001684
0.0001687
0.0001688
0.0001691
0.0001693
0.0001694
0.0001697
0.0001699
0.0001702
0.0001703
0.0001705
0.0001707
0.000171
0.0001712
0.0001713
0.0001716
0.0001718
0.000172
0.0001722
0.0001725
0.0001726
0.0001729
0.000173
0.0001733
0.0001735
0.0001737
0.0001739
0.0001741
0.0001744
0.0001745
0.0001748
0.000175
0.0001751
0.0001754
0.0001757
0.0001758
0.000176
0.0001763
0.0001765
0.0001767
0.0001769
0.0001771
0.0001773
0.0001775
0.0001778
0.000178
0.0001782
0.0001784
0.0001786
0.0001788
0.0001791
0.0001793
0.0001794
0.0001797
0.00018
0.0001801
0.0001803
0.0001806
0.0001808
0.000181
0.0001812
0.0001814
0.0001817
0.0001818
0.0001821
0.0001823
0.0001826
0.0001827
0.000183
0.0001831
0.0001834
0.0001836
0.0001839
0.000184
0.0001843
0.0001845
0.0001847
0.0001849
0.0001852
0.0001853
0.0001856
0.0001858
0.000186
0.0001863
0.0001864
0.0001867
0.0001869
0.0001872
0.0001873
0.0001876
0.0001878
0.000188
0.0001882
0.0001885
0.0001886
0.0001889
0.0001891
0.0001894
0.0001896
0.0001897
0.00019
0.0001903
0.0001904
0.0001907
0.0001909
0.0001911
0.0001914
0.0001915
0.0001918
0.000192
0.0001923
0.0001924
0.0001927
0.0001929
0.0001931
0.0001934
0.0001936
0.0001938
0.000194
0.0001943
0.0001944
0.0001947
0.000195
0.0001951
0.0001954
0.0001956
0.0001958
0.0001961
0.0001963
0.0001965
0.0001967
0.000197
0.0001971
0.0001975
0.0001976
0.0001979
0.000198
0.0001984
0.0001985
0.0001988
0.000199
0.0001992
0.0001995
0.0001996
0.0001999
0.0002002
0.0002003
0.0002006
0.0002009
0.000201
0.0002013
0.0002015
0.0002017
0.000202
0.0002022
0.0002024
0.0002027
0.0002028
0.0002031
0.0002034
0.0002035
0.0002038
0.0002041
0.0002042
0.0002045
0.0002047
0.000205
0.0002052
0.0002054
0.0002056
0.0002059
0.0002061
0.0002063
0.0002066
0.0002068
0.000207
0.0002072
0.0002075
0.0002077
0.000208
0.0002082
0.0002084
0.0002086
0.0002089
0.0002091
0.0002094
0.0002095
0.0002099
0.00021
0.0002103
0.0002105
0.0002107
0.000211
0.0002112
0.0002114
0.0002117
0.0002119
0.0002122
0.0002123
0.0002126
0.0002129
0.000213
0.0002134
0.0002135
0.0002138
0.000214
0.0002142
0.0002145
0.0002147
0.000215
0.0002152
0.0002154
0.0002157
0.0002159
0.0002161
0.0002163
0.0002166
0.0002169
0.000217
0.0002174
0.0002175
0.0002178
0.000218
0.0002182
0.0002185
0.0002188
0.0002189
0.0002192
0.0002195
0.0002196
0.0002199
0.0002202
0.0002204
0.0002206
0.0002208
0.0002211
0.0002214
0.0002215
0.0002218
0.0002221
0.0002223
0.0002225
0.0002228
0.000223
0.0002232
0.0002235
0.0002237
0.0002239
0.0002242
0.0002245
0.0002246
0.0002249
0.0002252
0.0002254
0.0002256
0.0002259
0.0002261
0.0002263
0.0002266
0.0002268
0.0002271
0.0002273
0.0002276
0.0002277
0.0002281
0.0002282
0.0002285
0.0002288
0.000229
0.0002292
0.0002295
0.0002297
0.0002299
0.0002302
0.0002305
0.0002306
0.0002309
0.0002312
0.0002314
0.0002316
0.0002319
0.0002321
0.0002324
0.0002326
0.0002329
0.000233
0.0002334
0.0002336
0.0002338
0.000234
0.0002343
0.0002346
0.0002348
0.000235
0.0002353
0.0002355
0.0002357
0.000236
0.0002363
0.0002365
0.0002367
0.000237
0.0002372
0.0002375
0.0002377
0.0002379
0.0002382
0.0002385
0.0002386
0.000239
0.0002391
0.0002394
0.0002397
0.0002399
0.0002401
0.0002404
0.0002407
0.0002408
0.0002412
0.0002413
0.0002416
0.0002419
0.0002421
0.0002424
0.0002426
0.0002428
0.0002431
0.0002433
0.0002436
0.0002438
0.0002441
0.0002443
0.0002445
0.0002448
0.0002451
0.0002453
0.0002455
0.0002458
0.000246
0.0002463
0.0002465
0.0002468
0.000247
0.0002473
0.0002475
0.0002477
0.0002481
0.0002482
0.0002485
0.0002487
0.000249
0.0002493
0.0002495
0.0002497
0.00025
0.0002502
0.0002505
0.0002507
0.0002509
0.0002513
0.0002514
0.0002517
0.000252
0.0002522
0.0002524
0.0002527
0.000253
0.0002532
0.0002534
0.0002537
0.000254
0.0002541
0.0002545
0.0002547
0.0002549
0.0002552
0.0002554
0.0002557
0.0002559
0.0002562
0.0002564
0.0002567
0.0002569
0.0002572
0.0002574
0.0002577
0.0002579
0.0002581
0.0002585
0.0002586
0.0002589
0.0002592
0.0002594
0.0002597
0.0002599
0.0002601
0.0002604
0.0002607
0.0002609
0.0002612
0.0002614
0.0002616
0.0002619
0.0002622
0.0002624
0.0002626
0.0002629
0.0002632
0.0002634
0.0002636
0.000264
0.0002641
0.0002644
0.0002647
0.0002649
0.0002651
0.0002654
0.0002657
0.0002659
0.0002661
0.0002665
0.0002666
0.0002669
0.0002672
0.0002674
0.0002676
0.000268
0.0002681
0.0002684
0.0002687
0.0002689
0.0002692
0.0002694
0.0002696
0.00027
0.0002701
0.0002705
0.0002706
0.0002709
0.0002712
0.0002714
0.0002717
0.0002719
0.0002722
0.0002724
0.0002727
0.000273
0.0002731
0.0002735
0.0002736
0.000274
0.0002742
0.0002744
0.0002747
0.0002749
0.0002752
0.0002755
0.0002757
0.0002759
0.0002762
0.0002765
0.0002767
0.0002769
0.0002772
0.0002775
0.0002777
0.000278
0.0002782
0.0002785
0.0002787
0.0002789
0.0002793
0.0002794
0.0002798
0.0002799
0.0002803
0.0002805
0.0002807
0.000281
0.0002812
0.0002815
0.0002817
0.000282
0.0002823
0.0002825
0.0002827
0.000283
0.0002833
0.0002835
0.0002838
0.000284
0.0002842
0.0002845
0.0002848
0.000285
0.0002853
0.0002855
0.0002858
0.000286
0.0002863
0.0002866
0.0002867
0.0002871
0.0002873
0.0002875
0.0002878
0.0002881
0.0002883
0.0002885
0.0002888
0.0002891
0.0002893
0.0002895
0.0002899
0.00029
0.0002903
0.0002906
0.0002908
0.0002911
0.0002913
0.0002916
0.0002919
0.000292
0.0002924
0.0002926
0.0002928
0.0002931
0.0002933
0.0002936
0.0002939
0.0002941
0.0002944
0.0002946
0.0002948
0.0002951
0.0002954
0.0002956
0.0002959
0.0002961
0.0002964
0.0002966
0.0002969
0.0002971
0.0002974
0.0002976
0.0002979
0.0002982
0.0002984
0.0002986
0.0002989
0.0002992
0.0002994
0.0002996
0.0002999
0.0003002
0.0003004
0.0003006
0.000301
0.0003011
0.0003014
0.0003017
0.0003019
0.0003022
0.0003024
0.0003027
0.0003029
0.0003032
0.0003034
0.0003037
0.000304
0.0003041
0.0003045
0.0003047
0.0003049
0.0003052
0.0003055
0.0003056
0.000306
0.0003062
0.0003064
0.0003068
0.0003069
0.0003072
0.0003075
0.0003077
0.0003079
0.0003082
0.0003085
0.0003087
0.000309
0.0003092
0.0003095
0.0003097
0.00031
0.0003102
0.0003105
0.0003107
0.0003109
0.0003113
0.0003114
0.0003118
0.0003119
0.0003123
0.0003125
0.0003127
0.000313
0.0003132
0.0003135
0.0003137
0.000314
0.0003142
0.0003145
0.0003147
0.000315
0.0003152
0.0003155
0.0003158
0.0003159
0.0003163
0.0003165
0.0003167
0.000317
0.0003172
0.0003175
0.0003177
0.000318
0.0003182
0.0003185
0.0003188
0.0003189
0.0003193
0.0003195
0.0003197
0.00032
0.0003202
0.0003205
0.0003207
0.000321
0.0003212
0.0003215
0.0003217
0.000322
0.0003222
0.0003224
0.0003228
0.0003229
0.0003232
0.0003235
0.0003237
0.000324
0.0003242
0.0003244
0.0003248
0.0003249
0.0003252
0.0003255
0.0003257
0.0003259
0.0003262
0.0003264
0.0003267
0.000327
0.0003271
0.0003275
0.0003276
0.000328
0.0003281
0.0003285
0.0003286
0.000329
0.0003291
0.0003294
0.0003297
0.0003299
0.0003301
0.0003304
0.0003307
0.0003309
0.0003311
0.0003314
0.0003316
0.0003319
0.0003321
0.0003324
0.0003326
0.0003328
0.0003331
0.0003334
0.0003336
0.0003338
0.0003341
0.0003343
0.0003346
0.0003348
0.0003351
0.0003353
0.0003356
0.0003358
0.000336
0.0003363
0.0003365
0.0003368
0.000337
0.0003373
0.0003375
0.0003378
0.000338
0.0003382
0.0003385
0.0003388
0.0003389
0.0003393
0.0003394
0.0003397
0.00034
0.0003402
0.0003404
0.0003407
0.0003409
0.0003412
0.0003414
0.0003416
0.0003419
0.0003422
0.0003424
0.0003426
0.0003428
0.0003431
0.0003434
0.0003436
0.0003438
0.0003441
0.0003443
0.0003446
0.0003448
0.000345
0.0003453
0.0003455
0.0003458
0.000346
0.0003462
0.0003465
0.0003467
0.000347
0.0003472
0.0003474
0.0003477
0.0003479
0.0003482
0.0003484
0.0003486
0.0003489
0.0003492
0.0003493
0.0003496
0.0003499
0.00035
0.0003504
0.0003505
0.0003508
0.000351
0.0003513
0.0003515
0.0003518
0.000352
0.0003522
0.0003524
0.0003527
0.000353
0.0003532
0.0003534
0.0003536
0.0003539
0.0003541
0.0003544
0.0003546
0.0003548
0.0003551
0.0003553
0.0003555
0.0003558
0.000356
0.0003563
0.0003564
0.0003568
0.0003569
0.0003572
0.0003574
0.0003577
0.0003579
0.0003581
0.0003584
0.0003586
0.0003588
0.0003591
0.0003593
0.0003595
0.0003598
0.00036
0.0003602
0.0003605
0.0003607
0.0003609
0.0003612
0.0003614
0.0003616
0.0003619
0.0003621
0.0003623
0.0003626
0.0003627
0.0003631
0.0003632
0.0003635
0.0003637
0.000364
0.0003642
0.0003644
0.0003646
0.0003649
0.0003651
0.0003653
0.0003656
0.0003658
0.000366
0.0003662
0.0003665
0.0003667
0.000367
0.0003671
0.0003674
0.0003677
0.0003678
0.0003681
0.0003683
0.0003685
0.0003688
0.000369
0.0003692
0.0003695
0.0003696
0.0003699
0.0003702
0.0003703
0.0003706
0.0003708
0.0003711
0.0003712
0.0003715
0.0003717
0.0003719
0.0003722
0.0003724
0.0003726
0.0003728
0.0003731
0.0003733
0.0003735
0.0003737
0.000374
0.0003742
0.0003744
0.0003746
0.0003749
0.000375
0.0003753
0.0003756
0.0003757
0.000376
0.0003762
0.0003764
0.0003766
0.0003769
0.000377
0.0003773
0.0003775
0.0003778
0.0003779
0.0003782
0.0003784
0.0003786
0.0003789
0.000379
0.0003793
0.0003795
0.0003797
0.00038
0.0003801
0.0003804
0.0003806
0.0003808
0.000381
0.0003813
0.0003814
0.0003817
0.0003819
0.0003821
0.0003824
0.0003825
0.0003828
0.000383
0.0003832
0.0003834
0.0003836
0.0003839
0.000384
0.0003843
0.0003845
0.0003847
0.0003849
0.0003852
0.0003853
0.0003856
0.0003857
0.000386
0.0003862
0.0003864
0.0003867
0.0003868
0.0003871
0.0003872
0.0003875
0.0003877
0.0003879
0.0003881
0.0003883
0.0003886
0.0003887
0.000389
0.0003891
0.0003894
0.0003896
0.0003898
0.00039
0.0003902
0.0003904
0.0003907
0.0003908
0.0003911
0.0003912
0.0003915
0.0003917
0.0003918
0.0003921
0.0003923
0.0003925
0.0003927
0.0003929
0.0003932
0.0003933
0.0003935
0.0003938
0.0003939
0.0003941
0.0003944
0.0003946
0.0003947
0.000395
0.0003951
0.0003954
0.0003956
0.0003958
0.000396
0.0003961
0.0003964
0.0003966
0.0003968
0.000397
0.0003972
0.0003974
0.0003976
0.0003978
0.000398
0.0003982
0.0003984
0.0003986
0.0003988
0.000399
0.0003992
0.0003993
0.0003996
0.0003998
0.0004
0.0004002
0.0004004
0.0004006
0.0004007
0.000401
0.0004012
0.0004014
0.0004015
0.0004018
0.0004019
0.0004022
0.0004023
0.0004026
0.0004027
0.0004029
0.0004032
0.0004033
0.0004035
0.0004037
0.0004039
0.0004041
0.0004043
0.0004044
0.0004047
0.0004049
0.000405
0.0004053
0.0004054
0.0004056
0.0004058
0.000406
0.0004062
0.0004064
0.0004066
0.0004067
0.000407
0.0004071
0.0004074
0.0004075
0.0004077
0.0004079
0.000408
0.0004083
0.0004085
0.0004086
0.0004088
0.000409
0.0004092
0.0004094
0.0004096
0.0004097
0.00041
0.0004101
0.0004103
0.0004105
0.0004106
0.0004109
0.000411
0.0004112
0.0004114
0.0004116
0.0004118
