# Pulseq sequence file
# Created by PyPulseq

[VERSION]
major 1
minor 3
revision 1post1

[DEFINITIONS]
Name 20211001_gre_spiralout_slcsel 
FOV 0.22 0.22 0.001 
Slice_Thickness 0.001000 

# Format of blocks:
#  #  D RF  GX  GY  GZ ADC EXT
[BLOCKS]
   1  1  0   0   0   0  1  0
   2  1  0   0   0   0  1  0
   3  1  0   0   0   0  1  0
   4  1  0   0   0   0  1  0
   5  1  0   0   0   0  1  0
   6  1  0   0   0   0  1  0
   7  1  0   0   0   0  1  0
   8  1  0   0   0   0  1  0
   9  1  0   0   0   0  1  0
  10  1  0   0   0   0  1  0
  11  1  0   0   0   0  1  0
  12  1  0   0   0   0  1  0
  13  1  0   0   0   0  1  0
  14  1  0   0   0   0  1  0
  15  1  0   0   0   0  1  0
  16  1  0   0   0   0  1  0
  17  2  1   0   0   1  0  0
  18  0  0   2   3   4  0  0
  19  3  0   0   0   0  0  0
  20  0  0   5   0   0  0  0
  21  4  0   6   7   8  0  0
  22  2  2   0   0   1  0  0
  23  0  0   2   3   4  0  0
  24  3  0   0   0   0  0  0
  25  0  0   5   0   0  0  0
  26  4  0   6   7   8  0  0
  27  2  3   0   0   1  0  0
  28  0  0   2   3   4  0  0
  29  3  0   0   0   0  0  0
  30  0  0   5   0   0  0  0
  31  4  0   6   7   8  0  0
  32  2  4   0   0   1  0  0
  33  0  0   2   3   4  0  0
  34  3  0   0   0   0  0  0
  35  0  0   5   0   0  0  0
  36  4  0   6   7   8  0  0
  37  2  5   0   0   1  0  0
  38  0  0   2   3   4  0  0
  39  3  0   0   0   0  0  0
  40  0  0   5   0   0  0  0
  41  4  0   6   7   8  0  0
  42  2  6   0   0   1  0  0
  43  0  0   2   3   4  0  0
  44  3  0   0   0   0  0  0
  45  0  0   5   0   0  0  0
  46  4  0   6   7   8  0  0
  47  2  7   0   0   1  0  0
  48  0  0   2   3   4  0  0
  49  3  0   0   0   0  0  0
  50  0  0   5   0   0  0  0
  51  4  0   6   7   8  0  0
  52  2  8   0   0   1  0  0
  53  0  0   2   3   4  0  0
  54  3  0   0   0   0  0  0
  55  0  0   5   0   0  0  0
  56  4  0   6   7   8  0  0
  57  2  9   0   0   1  0  0
  58  0  0   2   3   4  0  0
  59  3  0   0   0   0  0  0
  60  0  0   5   0   0  0  0
  61  4  0   6   7   8  0  0
  62  2 10   0   0   1  0  0
  63  0  0   2   3   4  0  0
  64  3  0   0   0   0  0  0
  65  0  0   5   0   0  0  0
  66  4  0   6   7   8  0  0
  67  2  6   0   0   1  0  0
  68  0  0   2   3   4  0  0
  69  3  0   0   0   0  0  0
  70  0  0   5   0   0  0  0
  71  4  0   6   7   8  0  0
  72  2 11   0   0   1  0  0
  73  0  0   2   3   4  0  0
  74  3  0   0   0   0  0  0
  75  0  0   5   0   0  0  0
  76  4  0   6   7   8  0  0
  77  2 12   0   0   1  0  0
  78  0  0   2   3   4  0  0
  79  3  0   0   0   0  0  0
  80  0  0   5   0   0  0  0
  81  4  0   6   7   8  0  0
  82  2 13   0   0   1  0  0
  83  0  0   2   3   4  0  0
  84  3  0   0   0   0  0  0
  85  0  0   5   0   0  0  0
  86  4  0   6   7   8  0  0
  87  2 14   0   0   1  0  0
  88  0  0   2   3   4  0  0
  89  3  0   0   0   0  0  0
  90  0  0   5   0   0  0  0
  91  4  0   6   7   8  0  0
  92  2  1   0   0   1  0  0
  93  0  0   2   3   4  0  0
  94  3  0   0   0   0  0  0
  95  0  0   5   0   0  0  0
  96  4  0   6   7   8  0  0
  97  2 15   0   0   1  0  0
  98  0  0   2   3   4  0  0
  99  3  0   0   0   0  0  0
 100  0  0   5   0   0  0  0
 101  4  0   6   7   8  0  0
 102  2 16   0   0   1  0  0
 103  0  0   2   3   4  0  0
 104  3  0   0   0   0  0  0
 105  0  0   5   0   0  0  0
 106  4  0   6   7   8  0  0
 107  2 13   0   0   1  0  0
 108  0  0   2   3   4  0  0
 109  3  0   0   0   0  0  0
 110  0  0   5   0   0  0  0
 111  4  0   6   7   8  0  0
 112  2 17   0   0   1  0  0
 113  0  0   2   3   4  0  0
 114  3  0   0   0   0  0  0
 115  0  0   5   0   0  0  0
 116  4  0   6   7   8  0  0
 117  2  5   0   0   1  0  0
 118  0  0   2   3   4  0  0
 119  3  0   0   0   0  0  0
 120  0  0   5   0   0  0  0
 121  4  0   6   7   8  0  0
 122  2 18   0   0   1  0  0
 123  0  0   2   3   4  0  0
 124  3  0   0   0   0  0  0
 125  0  0   5   0   0  0  0
 126  4  0   6   7   8  0  0
 127  2 19   0   0   1  0  0
 128  0  0   2   3   4  0  0
 129  3  0   0   0   0  0  0
 130  0  0   5   0   0  0  0
 131  4  0   6   7   8  0  0
 132  2  9   0   0   1  0  0
 133  0  0   2   3   4  0  0
 134  3  0   0   0   0  0  0
 135  0  0   5   0   0  0  0
 136  4  0   6   7   8  0  0
 137  2 20   0   0   1  0  0
 138  0  0   2   3   4  0  0
 139  3  0   0   0   0  0  0
 140  0  0   5   0   0  0  0
 141  4  0   6   7   8  0  0
 142  2 10   0   0   1  0  0
 143  0  0   2   3   4  0  0
 144  3  0   0   0   0  0  0
 145  0  0   5   0   0  0  0
 146  4  0   6   7   8  0  0
 147  2 18   0   0   1  0  0
 148  0  0   2   3   4  0  0
 149  3  0   0   0   0  0  0
 150  0  0   5   0   0  0  0
 151  4  0   6   7   8  0  0
 152  2 21   0   0   1  0  0
 153  0  0   2   3   4  0  0
 154  3  0   0   0   0  0  0
 155  0  0   5   0   0  0  0
 156  4  0   6   7   8  0  0
 157  2  4   0   0   1  0  0
 158  0  0   2   3   4  0  0
 159  3  0   0   0   0  0  0
 160  0  0   5   0   0  0  0
 161  4  0   6   7   8  0  0
 162  2 22   0   0   1  0  0
 163  0  0   2   3   4  0  0
 164  3  0   0   0   0  0  0
 165  0  0   5   0   0  0  0
 166  4  0   6   7   8  0  0
 167  2 14   0   0   1  0  0
 168  0  0   2   3   4  0  0
 169  3  0   0   0   0  0  0
 170  0  0   5   0   0  0  0
 171  4  0   6   7   8  0  0
 172  2 15   0   0   1  0  0
 173  0  0   2   3   4  0  0
 174  3  0   0   0   0  0  0
 175  0  0   5   0   0  0  0
 176  4  0   6   7   8  0  0
 177  2 23   0   0   1  0  0
 178  0  0   2   3   4  0  0
 179  3  0   0   0   0  0  0
 180  0  0   5   0   0  0  0
 181  4  0   6   7   8  0  0
 182  2  2   0   0   1  0  0
 183  0  0   2   3   4  0  0
 184  3  0   0   0   0  0  0
 185  0  0   5   0   0  0  0
 186  4  0   6   7   8  0  0
 187  2 22   0   0   1  0  0
 188  0  0   2   3   4  0  0
 189  3  0   0   0   0  0  0
 190  0  0   5   0   0  0  0
 191  4  0   6   7   8  0  0
 192  2 17   0   0   1  0  0
 193  0  0   2   3   4  0  0
 194  3  0   0   0   0  0  0
 195  0  0   5   0   0  0  0
 196  4  0   6   7   8  0  0
 197  2 11   0   0   1  0  0
 198  0  0   2   3   4  0  0
 199  3  0   0   0   0  0  0
 200  0  0   5   0   0  0  0
 201  4  0   6   7   8  0  0
 202  2 24   0   0   1  0  0
 203  0  0   2   3   4  0  0
 204  3  0   0   0   0  0  0
 205  0  0   5   0   0  0  0
 206  4  0   6   7   8  0  0
 207  2  7   0   0   1  0  0
 208  0  0   2   3   4  0  0
 209  3  0   0   0   0  0  0
 210  0  0   5   0   0  0  0
 211  4  0   6   7   8  0  0
 212  2 20   0   0   1  0  0
 213  0  0   2   3   4  0  0
 214  3  0   0   0   0  0  0
 215  0  0   5   0   0  0  0
 216  4  0   6   7   8  0  0
 217  2 20   0   0   1  0  0
 218  0  0   2   3   4  0  0
 219  3  0   0   0   0  0  0
 220  0  0   5   0   0  2  0
 221  4  0   6   7   8  0  0
 222  2  7   0   0   1  0  0
 223  0  0   2   9   4  0  0
 224  3  0   0   0   0  0  0
 225  0  0   5   0   0  3  0
 226  4  0   6  10   8  0  0
 227  2 24   0   0   1  0  0
 228  0  0   2  11   4  0  0
 229  3  0   0   0   0  0  0
 230  0  0   5   0   0  4  0
 231  4  0   6  12   8  0  0
 232  2 11   0   0   1  0  0
 233  0  0   2  13   4  0  0
 234  3  0   0   0   0  0  0
 235  0  0   5   0   0  5  0
 236  4  0   6  14   8  0  0
 237  2 17   0   0   1  0  0
 238  0  0   2  15   4  0  0
 239  3  0   0   0   0  0  0
 240  0  0   5   0   0  6  0
 241  4  0   6  16   8  0  0
 242  2 22   0   0   1  0  0
 243  0  0   2  17   4  0  0
 244  3  0   0   0   0  0  0
 245  0  0   5   0   0  7  0
 246  4  0   6  18   8  0  0
 247  2  2   0   0   1  0  0
 248  0  0   2  19   4  0  0
 249  3  0   0   0   0  0  0
 250  0  0   5   0   0  8  0
 251  4  0   6  20   8  0  0
 252  2 23   0   0   1  0  0
 253  0  0   2  21   4  0  0
 254  3  0   0   0   0  0  0
 255  0  0   5   0   0  9  0
 256  4  0   6  22   8  0  0
 257  2 15   0   0   1  0  0
 258  0  0   2  23   4  0  0
 259  3  0   0   0   0  0  0
 260  0  0   5   0   0 10  0
 261  4  0   6  24   8  0  0
 262  2 14   0   0   1  0  0
 263  0  0   2  25   4  0  0
 264  3  0   0   0   0  0  0
 265  0  0   5   0   0 11  0
 266  4  0   6  26   8  0  0
 267  2 22   0   0   1  0  0
 268  0  0   2  27   4  0  0
 269  3  0   0   0   0  0  0
 270  0  0   5   0   0  7  0
 271  4  0   6  28   8  0  0
 272  2  4   0   0   1  0  0
 273  0  0   2  29   4  0  0
 274  3  0   0   0   0  0  0
 275  0  0   5   0   0 12  0
 276  4  0   6  30   8  0  0
 277  2 21   0   0   1  0  0
 278  0  0   2  31   4  0  0
 279  3  0   0   0   0  0  0
 280  0  0   5   0   0 13  0
 281  4  0   6  32   8  0  0
 282  2 18   0   0   1  0  0
 283  0  0   2  33   4  0  0
 284  3  0   0   0   0  0  0
 285  0  0   5   0   0 14  0
 286  4  0   6  34   8  0  0
 287  2 10   0   0   1  0  0
 288  0  0   2  35   4  0  0
 289  3  0   0   0   0  0  0
 290  0  0   5   0   0 15  0
 291  4  0   6  36   8  0  0
 292  2 20   0   0   1  0  0
 293  0  0   2  37   4  0  0
 294  3  0   0   0   0  0  0
 295  0  0   5   0   0  2  0
 296  4  0   6  38   8  0  0
 297  2  9   0   0   1  0  0
 298  0  0   2  39   4  0  0
 299  3  0   0   0   0  0  0
 300  0  0   5   0   0 16  0
 301  4  0   6  40   8  0  0
 302  2 19   0   0   1  0  0
 303  0  0   2  41   4  0  0
 304  3  0   0   0   0  0  0
 305  0  0   5   0   0 17  0
 306  4  0   6  42   8  0  0
 307  2 18   0   0   1  0  0
 308  0  0   2  43   4  0  0
 309  3  0   0   0   0  0  0
 310  0  0   5   0   0 14  0
 311  4  0   6  44   8  0  0
 312  2  5   0   0   1  0  0
 313  0  0   2  45   4  0  0
 314  3  0   0   0   0  0  0
 315  0  0   5   0   0 18  0
 316  4  0   6  46   8  0  0
 317  2 17   0   0   1  0  0
 318  0  0   2  47   4  0  0
 319  3  0   0   0   0  0  0
 320  0  0   5   0   0  6  0
 321  4  0   6  48   8  0  0
 322  2 13   0   0   1  0  0
 323  0  0   2  49   4  0  0
 324  3  0   0   0   0  0  0
 325  0  0   5   0   0 19  0
 326  4  0   6  50   8  0  0
 327  2 16   0   0   1  0  0
 328  0  0   2  51   4  0  0
 329  3  0   0   0   0  0  0
 330  0  0   5   0   0 20  0
 331  4  0   6  52   8  0  0
 332  2 15   0   0   1  0  0
 333  0  0   2  53   4  0  0
 334  3  0   0   0   0  0  0
 335  0  0   5   0   0 10  0
 336  4  0   6  54   8  0  0
[RF]
1      83.1275 1 2 370 0 0
2      83.1275 1 2 370 0 2.04204
3      83.1275 1 2 370 0 6.12611
4      83.1275 1 2 370 0 5.96903
5      83.1275 1 2 370 0 1.5708
6      83.1275 1 2 370 0 5.49779
7      83.1275 1 2 370 0 5.18363
8      83.1275 1 2 370 0 0.628319
9      83.1275 1 2 370 0 4.39823
10      83.1275 1 2 370 0 3.92699
11      83.1275 1 2 370 0 2.82743
12      83.1275 1 2 370 0 2.19911
13      83.1275 1 2 370 0 3.61283
14      83.1275 1 2 370 0 0.785398
15      83.1275 1 2 370 0 1.25664
16      83.1275 1 2 370 0 4.55531
17      83.1275 1 2 370 0 4.71239
18      83.1275 1 2 370 0 0.471239
19      83.1275 1 2 370 0 1.41372
20      83.1275 1 2 370 0 3.14159
21      83.1275 1 2 370 0 5.34071
22      83.1275 1 2 370 0 2.35619
23      83.1275 1 2 370 0 3.76991
24      83.1275 1 2 370 0 2.98451
25      308.172 3 4 100 -981 0
26      55.4183 1 2 300 0 0
27      308.172 3 4 100 -981 0.872665
28      308.172 3 4 100 -981 2.61799
29      308.172 3 4 100 -981 5.23599
30      308.172 3 4 100 -981 2.44346
31      308.172 3 4 100 -981 0.523599
32      308.172 3 4 100 -981 5.75959
33      308.172 3 4 100 -981 5.58505
34      308.172 3 4 100 -981 1.5708
35      308.172 3 4 100 -981 4.01426
36      308.172 3 4 100 -981 1.0472
37      308.172 3 4 100 -981 3.66519
38      308.172 3 4 100 -981 4.18879
39      308.172 3 4 100 -981 4.71239
40      308.172 3 4 100 -981 2.0944
41      308.172 3 4 100 -981 3.14159

# Format of arbitrary gradients:
# id amplitude shape_id delay
# ..      Hz/m     ....    us
[GRADIENTS]
122  1.49009e+06 5 20
123  1.49003e+06 6 20
126  1.49009e+06 7 20
127  1.49007e+06 8 20
130   1.4901e+06 9 20
131  1.48998e+06 10 20
134  1.49009e+06 11 20
135  1.49009e+06 12 20
138  1.49003e+06 13 20
139  1.49008e+06 14 20
142  1.49009e+06 15 20
143  1.49007e+06 16 20
146  1.49008e+06 17 20
147  1.49002e+06 18 20
150     1.49e+06 19 20
151  1.49009e+06 20 20
154  1.48998e+06 21 20
155   1.4901e+06 22 20
158  1.48994e+06 23 20
159  1.49008e+06 24 20
162  1.49005e+06 25 20
163  1.49007e+06 26 20
166   1.4901e+06 27 20
167   1.4901e+06 28 20
170  1.48999e+06 29 20
171     1.49e+06 30 20
174   1.4901e+06 31 20
175  1.49005e+06 32 20
178  1.49009e+06 33 20
179   1.4901e+06 34 20

# Format of trapezoid gradients:
# id amplitude rise flat fall delay
# ..      Hz/m   us   us   us    us
[TRAP]
 1        2e+06 370 2500 370   0
 2      -195588  40 1320  40   0
 3      -183824  40 1320  40   0
 4 -2.03546e+06 370 1040 370   0
 5       400000  80 1250  80   0
 6  2.04082e+06 400   90 400   0
 7       183824  40 1320  40   0
 8  2.04082e+06 400 1560 400   0
 9      -180481  40 1320  40   0
10       180481  40 1320  40   0
11      -177139  40 1320  40   0
12       177139  40 1320  40   0
13      -173797  40 1320  40   0
14       173797  40 1320  40   0
15      -170455  40 1320  40   0
16       170455  40 1320  40   0
17      -165893  30 1340  30   0
18       165893  30 1340  30   0
19      -162575  30 1340  30   0
20       162575  30 1340  30   0
21      -159257  30 1340  30   0
22       159257  30 1340  30   0
23      -155939  30 1340  30   0
24       155939  30 1340  30   0
25      -152621  30 1340  30   0
26       152621  30 1340  30   0
27      -149303  30 1340  30   0
28       149303  30 1340  30   0
29      -145985  30 1340  30   0
30       145985  30 1340  30   0
31      -142668  30 1340  30   0
32       142668  30 1340  30   0
33      -139350  30 1340  30   0
34       139350  30 1340  30   0
35      -136032  30 1340  30   0
36       136032  30 1340  30   0
37      -132714  30 1340  30   0
38       132714  30 1340  30   0
39      -129396  30 1340  30   0
40       129396  30 1340  30   0
41      -126078  30 1340  30   0
42       126078  30 1340  30   0
43      -122760  30 1340  30   0
44       122760  30 1340  30   0
45      -119443  30 1340  30   0
46       119443  30 1340  30   0
47      -116125  30 1340  30   0
48       116125  30 1340  30   0
49      -112807  30 1340  30   0
50       112807  30 1340  30   0
51      -108696  20 1360  20   0
52       108696  20 1360  20   0
53      -105402  20 1360  20   0
54       105402  20 1360  20   0
55      -102108  20 1360  20   0
56       102108  20 1360  20   0
57     -98814.2  20 1360  20   0
58      98814.2  20 1360  20   0
59     -95520.4  20 1360  20   0
60      95520.4  20 1360  20   0
61     -92226.6  20 1360  20   0
62      92226.6  20 1360  20   0
63     -88932.8  20 1360  20   0
64      88932.8  20 1360  20   0
65       -85639  20 1360  20   0
66        85639  20 1360  20   0
67     -82345.2  20 1360  20   0
68      82345.2  20 1360  20   0
69     -79051.4  20 1360  20   0
70      79051.4  20 1360  20   0
71     -75757.6  20 1360  20   0
72      75757.6  20 1360  20   0
73     -72463.8  20 1360  20   0
74      72463.8  20 1360  20   0
75       -69170  20 1360  20   0
76        69170  20 1360  20   0
77     -65876.2  20 1360  20   0
78      65876.2  20 1360  20   0
79     -62582.3  20 1360  20   0
80      62582.3  20 1360  20   0
81     -59288.5  20 1360  20   0
82      59288.5  20 1360  20   0
83     -55994.7  20 1360  20   0
84      55994.7  20 1360  20   0
85     -52321.8  10 1380  10   0
86      52321.8  10 1380  10   0
87     -49051.7  10 1380  10   0
88      49051.7  10 1380  10   0
89     -45781.6  10 1380  10   0
90      45781.6  10 1380  10   0
91     -42511.4  10 1380  10   0
92      42511.4  10 1380  10   0
93     -39241.3  10 1380  10   0
94      39241.3  10 1380  10   0
95     -35971.2  10 1380  10   0
96      35971.2  10 1380  10   0
97     -32701.1  10 1380  10   0
98      32701.1  10 1380  10   0
99       -29431  10 1380  10   0
100        29431  10 1380  10   0
101     -26160.9  10 1380  10   0
102      26160.9  10 1380  10   0
103     -22890.8  10 1380  10   0
104      22890.8  10 1380  10   0
105     -19620.7  10 1380  10   0
106      19620.7  10 1380  10   0
107     -16350.6  10 1380  10   0
108      16350.6  10 1380  10   0
109     -13080.4  10 1380  10   0
110      13080.4  10 1380  10   0
111     -9810.33  10 1380  10   0
112      9810.33  10 1380  10   0
113     -6540.22  10 1380  10   0
114      6540.22  10 1380  10   0
115     -3270.11  10 1380  10   0
116      3270.11  10 1380  10   0
117            0  10 1380  10   0
118           -0  10 1380  10   0
119  2.03966e+06 480 3050 480 100
120        2e+06 300 2500 300   0
121 -2.02899e+06 300 1080 300   0
124  1.00179e+06 240    0 240   0
125 -1.32718e+06 330    0 330   0
128       415041 100    0 100   0
129 -1.42256e+06 350    0 350   0
132      -822986 200    0 200   0
133 -1.38745e+06 340    0 340   0
136 -1.18013e+06 290    0 290   0
137 -1.21334e+06 300    0 300   0
140 -1.39607e+06 330    0 330   0
141      -878780 220    0 220   0
144 -1.42717e+06 350    0 350   0
145       179462  60    0  60   0
148 -1.36953e+06 330    0 330   0
149       926109 230    0 230   0
152 -1.16512e+06 280    0 280   0
153  1.26137e+06 300    0 300   0
156      -758505 190    0 190   0
157  1.40702e+06 340    0 340   0
160       484012 130    0 130   0
161  1.41613e+06 350    0 350   0
164  1.03632e+06 250    0 250   0
165  1.33501e+06 320    0 320   0
168  1.28262e+06 320    0 320   0
169  1.09574e+06 260    0 260   0
172  1.44362e+06 340    0 340   0
173       622142 150    0 150   0
176  1.43045e+06 340    0 340   0
177      -672859 170    0 170   0
180  1.28317e+06 310    0 310   0
181 -1.11968e+06 270    0 270   0

# Format of ADC events:
# id num dwell delay freq phase
# ..  ..    ns    us   Hz   rad
[ADC]
1 256 2000 0 0 0
2 220 5682 80 0 3.14159
3 220 5682 80 0 5.18363
4 220 5682 80 0 2.98451
5 220 5682 80 0 2.82743
6 220 5682 80 0 4.71239
7 220 5682 80 0 2.35619
8 220 5682 80 0 2.04204
9 220 5682 80 0 3.76991
10 220 5682 80 0 1.25664
11 220 5682 80 0 0.785398
12 220 5682 80 0 5.96903
13 220 5682 80 0 5.34071
14 220 5682 80 0 0.471239
15 220 5682 80 0 3.92699
16 220 5682 80 0 4.39823
17 220 5682 80 0 1.41372
18 220 5682 80 0 1.5708
19 220 5682 80 0 3.61283
20 220 5682 80 0 4.55531
21 220 5682 80 0 0
22 220 5682 80 0 2.19911
23 220 5682 80 0 5.49779
24 220 5682 80 0 0.628319
25 220 5682 80 0 6.12611
26 6508 1500 0 0 0

# Format of delays:
# id delay (us)
[DELAYS]
1 1520
2 3240
3 70
4 20
5 2000000
6 2230
7 3100
8 1770
9 9970
10 3030

# Sequence Shapes
[SHAPES]

shape_id 1
num_samples 2500
2e-07
6e-07
1e-06
1.4e-06
1.8e-06
2.3e-06
2.6e-06
3e-06
3.5e-06
3.8e-06
4.3e-06
4.6e-06
5.1e-06
5.5e-06
5.9e-06
6.3e-06
6.7e-06
7.1e-06
7.5e-06
7.9e-06
8.3e-06
8.7e-06
9.1e-06
9.5e-06
9.9e-06
1.03e-05
1.07e-05
1.11e-05
1.15e-05
1.18e-05
1.23e-05
1.26e-05
1.31e-05
1.34e-05
1.37e-05
1.42e-05
1.45e-05
1.49e-05
1.53e-05
1.56e-05
1.6e-05
1.64e-05
1.67e-05
1.7e-05
1.75e-05
1.77e-05
1.81e-05
1.84e-05
1.88e-05
1.91e-05
1.94e-05
1.98e-05
2.01e-05
2.03e-05
2.07e-05
2.1e-05
2.13e-05
2.16e-05
2.19e-05
2.22e-05
2.24e-05
2.28e-05
2.3e-05
2.32e-05
2.36e-05
2.37e-05
2.41e-05
2.42e-05
2.45e-05
2.48e-05
2.5e-05
2.51e-05
2.54e-05
2.56e-05
2.59e-05
2.6e-05
2.61e-05
2.64e-05
2.66e-05
2.67e-05
2.69e-05
2.7e-05
2.72e-05
2.73e-05
2.74e-05
2.76e-05
2.77e-05
2.78e-05
2.79e-05
2.8e-05
2.8e-05
0
2.82e-05
2.82e-05
0
2.83e-05
2.83e-05
0
2.84e-05
2.85e-05
2.84e-05
2.85e-05
2.85e-05
2
2.84e-05
2.85e-05
2.84e-05
2.84e-05
0
2.83e-05
2.83e-05
0
2.81e-05
2.82e-05
2.8e-05
2.79e-05
2.78e-05
2.77e-05
2.76e-05
2.75e-05
2.73e-05
2.71e-05
2.7e-05
2.68e-05
2.66e-05
2.64e-05
2.62e-05
2.6e-05
2.57e-05
2.56e-05
2.52e-05
2.5e-05
2.48e-05
2.44e-05
2.42e-05
2.39e-05
2.35e-05
2.32e-05
2.29e-05
2.26e-05
2.21e-05
2.19e-05
2.14e-05
2.1e-05
2.07e-05
2.02e-05
1.98e-05
1.93e-05
1.9e-05
1.84e-05
1.8e-05
1.75e-05
1.7e-05
1.65e-05
1.59e-05
1.55e-05
1.49e-05
1.43e-05
1.38e-05
1.32e-05
1.26e-05
1.2e-05
1.14e-05
1.08e-05
1.01e-05
9.5e-06
8.8e-06
8.1e-06
7.5e-06
6.7e-06
6e-06
5.4e-06
4.5e-06
3.9e-06
3e-06
2.3e-06
1.5e-06
8e-07
-1e-07
-9e-07
-1.8e-06
-2.6e-06
-3.5e-06
-4.3e-06
-5.2e-06
-6.1e-06
-7e-06
-8e-06
-8.8e-06
-9.8e-06
-1.08e-05
-1.18e-05
-1.27e-05
-1.37e-05
-1.47e-05
-1.58e-05
-1.68e-05
-1.78e-05
-1.89e-05
-1.99e-05
-2.1e-05
-2.22e-05
-2.32e-05
-2.43e-05
-2.55e-05
-2.66e-05
-2.78e-05
-2.89e-05
-3.01e-05
-3.13e-05
-3.25e-05
-3.37e-05
-3.49e-05
-3.62e-05
-3.74e-05
-3.87e-05
-3.99e-05
-4.13e-05
-4.25e-05
-4.38e-05
-4.52e-05
-4.65e-05
-4.78e-05
-4.91e-05
-5.06e-05
-5.19e-05
-5.33e-05
-5.47e-05
-5.61e-05
-5.75e-05
-5.89e-05
-6.04e-05
-6.18e-05
-6.33e-05
-6.48e-05
-6.62e-05
-6.78e-05
-6.92e-05
-7.08e-05
-7.23e-05
-7.38e-05
-7.54e-05
-7.69e-05
-7.85e-05
-8e-05
-8.17e-05
-8.32e-05
-8.49e-05
-8.64e-05
-8.81e-05
-8.97e-05
-9.13e-05
-9.3e-05
-9.47e-05
9.63e-05
9.8e-05
9.97e-05
0.0001014
0.0001031
0.0001048
0.0001065
0.0001083
0.0001099
0.0001118
0.0001134
0.0001153
0.000117
0.0001188
0.0001205
0.0001224
0.0001241
0.000126
0.0001278
0.0001295
0.0001315
0.0001332
0.0001351
0.0001369
0.0001388
0.0001406
0.0001425
0.0001443
0.0001462
0.0001482
0.0001499
0.0001519
0.0001538
0.0001557
0.0001575
0.0001595
0.0001614
0.0001633
0.0001653
0.0001671
0.0001691
0.0001711
0.0001729
0.0001749
0.0001769
0.0001788
0.0001807
0.0001827
0.0001847
0.0001866
0.0001885
0.0001906
0.0001924
0.0001945
0.0001964
0.0001984
0.0002004
0.0002023
0.0002043
0.0002063
0.0002082
0.0002103
0.0002121
0.0002142
0.0002162
0.0002181
0.0002201
0.000222
0.000224
0.000226
0.000228
0.0002299
0.0002319
0.0002339
0.0002358
0.0002378
0.0002398
0.0002417
0.0002436
0.0002456
0.0002475
0.0002495
0.0002514
0.0002534
0.0002553
0.0002572
0.0002591
0.0002611
0.0002629
0.0002649
0.0002668
0.0002687
0.0002705
0.0002725
0.0002743
0.0002762
0.000278
0.00028
0.0002817
0.0002837
0.0002854
0.0002873
0.0002891
0.000291
0.0002927
0.0002945
0.0002964
0.0002981
0.0002998
0.0003017
0.0003034
0.0003051
0.0003069
0.0003086
0.0003103
0.000312
0.0003137
0.0003154
0.000317
0.0003187
0.0003204
0.000322
0.0003236
0.0003252
0.0003268
0.0003284
0.00033
0.0003315
0.0003331
0.0003346
0.0003361
0.0003377
0.0003391
0.0003406
0.000342
0.0003435
0.0003449
0.0003463
0.0003478
0.0003491
0.0003504
0.0003519
0.0003531
0.0003545
0.0003557
0.0003571
0.0003583
0.0003595
0.0003608
0.000362
0.0003631
0.0003644
0.0003655
0.0003666
0.0003677
0.0003688
0.0003699
0.000371
0.000372
0.000373
0.0003739
0.000375
0.0003759
0.0003768
0.0003778
0.0003786
0.0003795
0.0003803
0.0003811
0.0003819
0.0003827
0.0003835
0.0003841
0.0003849
0.0003855
0.0003862
0.0003868
0.0003874
0.000388
0.0003886
0.000389
0.0003896
0.00039
0.0003905
0.0003909
0.0003914
0.0003916
0.000392
0.0003924
0.0003926
0.0003929
0.0003931
0.0003933
0.0003935
0.0003937
0.0003937
0
0.0003939
0.0003939
1
0.000394
0.0003939
0.0003939
0
0.0003938
0.0003936
0.0003935
0.0003934
0.0003931
0.0003929
0.0003926
0.0003923
0.000392
0.0003916
0.0003912
0.0003908
0.0003903
0.0003899
0.0003892
0.0003888
0.0003881
0.0003875
0.0003869
0.0003861
0.0003854
0.0003847
0.0003839
0.000383
0.0003821
0.0003813
0.0003803
0.0003794
0.0003783
0.0003773
0.0003762
0.0003751
0.000374
0.0003727
0.0003715
0.0003703
0.000369
0.0003676
0.0003663
0.0003649
0.0003634
0.0003619
0.0003605
0.0003588
0.0003573
0.0003556
0.0003539
0.0003523
0.0003505
0.0003487
0.0003468
0.000345
0.0003431
0.0003412
0.0003392
0.0003371
0.0003351
0.000333
0.0003308
0.0003286
0.0003265
0.0003241
0.0003219
0.0003195
0.0003171
0.0003147
0.0003123
0.0003097
0.0003072
0.0003045
0.000302
0.0002993
0.0002965
0.0002938
0.0002911
0.0002881
0.0002853
0.0002824
0.0002794
0.0002764
0.0002733
0.0002703
0.0002671
0.0002639
0.0002608
0.0002574
0.0002542
0.0002508
0.0002474
0.000244
0.0002405
0.000237
0.0002334
0.0002298
0.0002262
0.0002225
0.0002187
0.000215
0.0002111
0.0002073
0.0002034
0.0001994
0.0001954
0.0001914
0.0001873
0.0001832
0.000179
0.0001748
0.0001705
0.0001663
0.0001619
0.0001575
0.000153
0.0001486
0.0001441
0.0001395
0.0001349
0.0001303
0.0001255
0.0001209
0.000116
0.0001112
0.0001063
0.0001015
9.65e-05
9.14e-05
8.65e-05
8.13e-05
7.62e-05
7.1e-05
6.59e-05
6.05e-05
5.53e-05
4.99e-05
4.45e-05
3.9e-05
3.36e-05
2.81e-05
2.25e-05
1.69e-05
1.12e-05
5.6e-06
-2e-07
-6e-06
-1.18e-05
-1.76e-05
-2.36e-05
-2.95e-05
-3.55e-05
-4.15e-05
-4.77e-05
-5.37e-05
-5.99e-05
-6.61e-05
-7.24e-05
-7.86e-05
-8.5e-05
-9.14e-05
-9.77e-05
-0.0001042
-0.0001108
-0.0001172
-0.0001238
-0.0001305
-0.0001371
-0.0001438
-0.0001506
-0.0001573
-0.0001642
-0.000171
-0.0001779
-0.0001849
-0.0001919
-0.0001988
-0.000206
-0.000213
-0.0002202
-0.0002274
-0.0002346
-0.0002418
-0.0002491
-0.0002565
-0.0002639
-0.0002712
-0.0002787
-0.0002862
-0.0002937
-0.0003013
-0.0003089
-0.0003165
-0.0003242
-0.0003319
-0.0003396
-0.0003474
-0.0003553
-0.0003631
-0.000371
-0.0003789
-0.0003868
-0.0003949
-0.0004029
-0.000411
-0.000419
-0.0004272
-0.0004354
-0.0004435
-0.0004518
-0.0004601
-0.0004683
-0.0004767
-0.0004851
-0.0004934
-0.0005019
-0.0005104
-0.0005188
-0.0005274
-0.0005359
-0.0005445
-0.0005531
-0.0005618
-0.0005704
-0.0005792
-0.0005879
-0.0005966
-0.0006055
-0.0006143
-0.0006231
-0.000632
-0.0006409
-0.0006498
-0.0006588
-0.0006678
-0.0006768
-0.0006858
-0.000695
-0.000704
-0.0007131
-0.0007222
-0.0007315
-0.0007406
-0.0007498
-0.0007591
-0.0007684
-0.0007776
-0.0007869
-0.0007963
-0.0008056
-0.0008151
-0.0008244
-0.0008338
-0.0008432
-0.0008528
-0.0008622
-0.0008717
-0.0008812
-0.0008908
-0.0009003
-0.0009099
-0.0009195
-0.0009292
-0.0009387
-0.0009484
-0.0009581
-0.0009677
-0.0009774
-0.0009872
-0.0009969
-0.0010066
-0.0010164
-0.0010262
-0.0010359
-0.0010457
-0.0010556
-0.0010654
-0.0010752
-0.0010851
-0.0010949
-0.0011048
-0.0011147
-0.0011246
-0.0011345
-0.0011444
-0.0011543
-0.0011643
-0.0011741
-0.0011842
-0.0011941
-0.0012041
-0.001214
-0.001224
-0.001234
-0.001244
-0.001254
-0.0012639
-0.001274
-0.001284
-0.001294
-0.001304
0.001314
0.0013241
0.001334
0.0013441
0.0013541
0.0013642
0.0013741
0.0013842
0.0013942
0.0014043
0.0014142
0.0014243
0.0014343
0.0014443
0.0014543
0.0014643
0.0014743
0.0014843
0.0014944
0.0015043
0.0015143
0.0015242
0.0015343
0.0015442
0.0015541
0.0015641
0.001574
0.001584
0.0015939
0.0016038
0.0016137
0.0016236
0.0016335
0.0016433
0.0016532
0.001663
0.0016729
0.0016827
0.0016924
0.0017023
0.0017121
0.0017218
0.0017315
0.0017413
0.001751
0.0017606
0.0017704
0.00178
0.0017897
0.0017992
0.0018089
0.0018184
0.0018281
0.0018375
0.0018471
0.0018566
0.001866
0.0018755
0.0018849
0.0018944
0.0019037
0.0019131
0.0019224
0.0019317
0.0019411
0.0019502
0.0019595
0.0019687
0.0019779
0.001987
0.0019962
0.0020052
0.0020143
0.0020234
0.0020323
0.0020413
0.0020502
0.0020592
0.002068
0.0020769
0.0020857
0.0020944
0.0021032
0.002112
0.0021205
0.0021293
0.0021378
0.0021464
0.0021549
0.0021635
0.0021718
0.0021803
0.0021887
0.002197
0.0022054
0.0022135
0.0022218
0.00223
0.0022382
0.0022462
0.0022543
0.0022623
0.0022702
0.0022782
0.0022861
0.002294
0.0023017
0.0023095
0.0023171
0.0023249
0.0023324
0.0023401
0.0023475
0.002355
0.0023625
0.0023698
0.0023772
0.0023844
0.0023917
0.0023988
0.002406
0.002413
0.0024201
0.002427
0.002434
0.0024408
0.0024477
0.0024544
0.0024612
0.0024677
0.0024744
0.002481
0.0024874
0.0024939
0.0025002
0.0025066
0.0025128
0.0025191
0.0025252
0.0025313
0.0025373
0.0025433
0.0025492
0.0025551
0.0025609
0.0025666
0.0025723
0.0025779
0.0025835
0.0025889
0.0025944
0.0025998
0.002605
0.0026103
0.0026155
0.0026206
0.0026257
0.0026306
0.0026355
0.0026405
0.0026452
0.0026499
0.0026546
0.0026591
0.0026637
0.0026682
0.0026725
0.0026769
0.0026811
0.0026853
0.0026894
0.0026934
0.0026975
0.0027013
0.0027052
0.0027089
0.0027127
0.0027163
0.0027198
0.0027233
0.0027267
0.00273
0.0027333
0.0027365
0.0027396
0.0027427
0.0027456
0.0027486
0.0027513
0.0027541
0.0027568
0.0027594
0.0027619
0.0027644
0.0027667
0.002769
0.0027713
0.0027734
0.0027754
0.0027775
0.0027793
0.0027812
0.002783
0.0027846
0.0027863
0.0027877
0.0027892
0.0027906
0.0027919
0.0027931
0.0027942
0.0027952
0.0027962
0.0027972
0.0027979
0.0027987
0.0027993
0.0027998
0.0028004
0.0028008
0.0028011
0.0028013
0.0028015
0.0028016
0.0028016
0
0.0028015
0.0028014
0.0028011
0.0028008
0.0028003
0.0027999
0.0027993
0.0027986
0.0027979
0.002797
0.0027962
0.0027951
0.0027941
0.002793
0.0027916
0.0027904
0.0027889
0.0027875
0.0027858
0.0027842
0.0027825
0.0027806
0.0027787
0.0027767
0.0027746
0.0027724
0.0027702
0.0027679
0.0027654
0.0027629
0.0027603
0.0027576
0.0027549
0.002752
0.0027491
0.0027461
0.0027429
0.0027398
0.0027365
0.0027331
0.0027297
0.0027261
0.0027225
0.0027189
0.002715
0.0027112
0.0027072
0.0027031
0.0026991
0.0026948
0.0026905
0.0026862
0.0026816
0.0026771
0.0026725
0.0026678
0.0026629
0.0026581
0.002653
0.002648
0.0026429
0.0026376
0.0026323
0.0026269
0.0026215
0.0026158
0.0026102
0.0026045
0.0025986
0.0025927
0.0025868
0.0025806
0.0025745
0.0025683
0.0025619
0.0025556
0.002549
0.0025424
0.0025359
0.002529
0.0025223
0.0025153
0.0025083
0.0025013
0.0024941
0.0024869
0.0024796
0.0024722
0.0024647
0.0024571
0.0024495
0.0024418
0.002434
0.0024261
0.0024181
0.0024101
0.002402
0.0023937
0.0023855
0.0023771
0.0023687
0.0023601
0.0023516
0.0023429
0.0023341
0.0023253
0.0023164
0.0023074
0.0022983
0.0022892
0.0022799
0.0022707
0.0022613
0.0022518
0.0022423
0.0022328
0.002223
0.0022133
0.0022035
0.0021935
0.0021836
0.0021736
0.0021634
0.0021532
0.002143
0.0021326
0.0021222
0.0021117
0.0021012
0.0020905
0.0020799
0.0020691
0.0020582
0.0020473
0.0020364
0.0020252
0.0020142
0.002003
0.0019917
0.0019804
0.001969
0.0019576
0.001946
0.0019344
0.0019228
0.001911
0.0018993
0.0018874
0.0018754
0.0018635
0.0018514
0.0018393
0.0018272
0.0018149
0.0018026
0.0017902
0.0017778
0.0017653
0.0017527
0.0017402
0.0017274
0.0017148
0.0017019
0.0016891
0.0016762
0.0016632
0.0016502
0.0016371
0.001624
0.0016107
0.0015976
0.0015842
0.0015708
0.0015575
0.0015439
0.0015305
0.0015168
0.0015032
0.0014896
0.0014758
0.001462
0.0014482
0.0014343
0.0014203
0.0014064
0.0013923
0.0013782
0.0013641
0.0013499
0.0013357
0.0013214
0.0013071
0.0012927
0.0012783
0.0012638
0.0012494
0.0012347
0.0012202
0.0012056
0.0011909
0.0011761
0.0011614
0.0011466
0.0011317
0.0011169
0.0011019
0.001087
0.001072
0.001057
0.0010418
0.0010268
0.0010116
0.0009964
0.0009813
0.0009659
0.0009507
0.0009354
0.00092
0.0009046
0.0008892
0.0008737
0.0008583
0.0008428
0.0008272
0.0008116
0.0007961
0.0007804
