# Pulseq sequence format
# Created by JEMRIS 2.9.0

[VERSION]
major 1
minor 2
revision 1

[DEFINITIONS]
Name gre_3D_caipi_nonsel_rfspoil_te5_3T
Num_Blocks 70081
FOV 210 210 160
Slice_Thickness 160

# Format of blocks:
#   #  D RF  GX  GY  GZ ADC
[BLOCKS]
    1  0  1   0   0   1  0
    2  0  0   2   3   4  0
    3  1  0   0   0   0  0
    4  0  0   5   0   0  1
    5  0  0   2   6   7  0
    6  2  0   0   0   0  0
    7  0  2   0   0   1  0
    8  0  0   2   8   4  0
    9  1  0   0   0   0  0
   10  0  0   5   0   0  2
   11  0  0   2   9   7  0
   12  2  0   0   0   0  0
   13  0  3   0   0   1  0
   14  0  0   2  10   4  0
   15  1  0   0   0   0  0
   16  0  0   5   0   0  3
   17  0  0   2  11   7  0
   18  2  0   0   0   0  0
   19  0  4   0   0   1  0
   20  0  0   2  12   4  0
   21  1  0   0   0   0  0
   22  0  0   5   0   0  4
   23  0  0   2  13   7  0
   24  2  0   0   0   0  0
   25  0  5   0   0   1  0
   26  0  0   2  14   4  0
   27  1  0   0   0   0  0
   28  0  0   5   0   0  5
   29  0  0   2  15   7  0
   30  2  0   0   0   0  0
   31  0  6   0   0   1  0
   32  0  0   2  16   4  0
   33  1  0   0   0   0  0
   34  0  0   5   0   0  6
   35  0  0   2  17   7  0
   36  2  0   0   0   0  0
   37  0  3   0   0   1  0
   38  0  0   2  18   4  0
   39  1  0   0   0   0  0
   40  0  0   5   0   0  3
   41  0  0   2  19   7  0
   42  2  0   0   0   0  0
   43  0  5   0   0   1  0
   44  0  0   2  20   4  0
   45  1  0   0   0   0  0
   46  0  0   5   0   0  5
   47  0  0   2  21   7  0
   48  2  0   0   0   0  0
   49  0  1   0   0   1  0
   50  0  0   2  22   4  0
   51  1  0   0   0   0  0
   52  0  0   5   0   0  1
   53  0  0   2  23   7  0
   54  2  0   0   0   0  0
   55  0  7   0   0   1  0
   56  0  0   2  24   4  0
   57  1  0   0   0   0  0
   58  0  0   5   0   0  7
   59  0  0   2  25   7  0
   60  2  0   0   0   0  0
   61  0  2   0   0   1  0
   62  0  0   2  26   4  0
   63  1  0   0   0   0  0
   64  0  0   5   0   0  2
   65  0  0   2  27   7  0
   66  2  0   0   0   0  0
   67  0  8   0   0   1  0
   68  0  0   2  28   4  0
   69  1  0   0   0   0  0
   70  0  0   5   0   0  8
   71  0  0   2  29   7  0
   72  2  0   0   0   0  0
   73  0  4   0   0   1  0
   74  0  0   2  30   4  0
   75  1  0   0   0   0  0
   76  0  0   5   0   0  4
   77  0  0   2  31   7  0
   78  2  0   0   0   0  0
   79  0  2   0   0   1  0
   80  0  0   2  32   4  0
   81  1  0   0   0   0  0
   82  0  0   5   0   0  2
   83  0  0   2  33   7  0
   84  2  0   0   0   0  0
   85  0  6   0   0   1  0
   86  0  0   2  34   4  0
   87  1  0   0   0   0  0
   88  0  0   5   0   0  6
   89  0  0   2  35   7  0
   90  2  0   0   0   0  0
   91  0  8   0   0   1  0
   92  0  0   2  36   4  0
   93  1  0   0   0   0  0
   94  0  0   5   0   0  8
   95  0  0   2  37   7  0
   96  2  0   0   0   0  0
   97  0  5   0   0   1  0
   98  0  0   2  38   4  0
   99  1  0   0   0   0  0
  100  0  0   5   0   0  5
  101  0  0   2  39   7  0
  102  2  0   0   0   0  0
  103  0  7   0   0   1  0
  104  0  0   2  40   4  0
  105  1  0   0   0   0  0
  106  0  0   5   0   0  7
  107  0  0   2  41   7  0
  108  2  0   0   0   0  0
  109  0  7   0   0   1  0
  110  0  0   2  42   4  0
  111  1  0   0   0   0  0
  112  0  0   5   0   0  7
  113  0  0   2  43   7  0
  114  2  0   0   0   0  0
  115  0  5   0   0   1  0
  116  0  0   2  44   4  0
  117  1  0   0   0   0  0
  118  0  0   5   0   0  5
  119  0  0   2  45   7  0
  120  2  0   0   0   0  0
  121  0  8   0   0   1  0
  122  0  0   2  46   4  0
  123  1  0   0   0   0  0
  124  0  0   5   0   0  8
  125  0  0   2  47   7  0
  126  2  0   0   0   0  0
  127  0  6   0   0   1  0
  128  0  0   2  48   4  0
  129  1  0   0   0   0  0
  130  0  0   5   0   0  6
  131  0  0   2  48   7  0
  132  2  0   0   0   0  0
  133  0  2   0   0   1  0
  134  0  0   2  47   4  0
  135  1  0   0   0   0  0
  136  0  0   5   0   0  2
  137  0  0   2  46   7  0
  138  2  0   0   0   0  0
  139  0  4   0   0   1  0
  140  0  0   2  45   4  0
  141  1  0   0   0   0  0
  142  0  0   5   0   0  4
  143  0  0   2  44   7  0
  144  2  0   0   0   0  0
  145  0  8   0   0   1  0
  146  0  0   2  43   4  0
  147  1  0   0   0   0  0
  148  0  0   5   0   0  8
  149  0  0   2  42   7  0
  150  2  0   0   0   0  0
  151  0  2   0   0   1  0
  152  0  0   2  41   4  0
  153  1  0   0   0   0  0
  154  0  0   5   0   0  2
  155  0  0   2  40   7  0
  156  2  0   0   0   0  0
  157  0  7   0   0   1  0
  158  0  0   2  39   4  0
  159  1  0   0   0   0  0
  160  0  0   5   0   0  7
  161  0  0   2  38   7  0
  162  2  0   0   0   0  0
  163  0  1   0   0   1  0
  164  0  0   2  37   4  0
  165  1  0   0   0   0  0
  166  0  0   5   0   0  1
  167  0  0   2  36   7  0
  168  2  0   0   0   0  0
  169  0  5   0   0   1  0
  170  0  0   2  35   4  0
  171  1  0   0   0   0  0
  172  0  0   5   0   0  5
  173  0  0   2  34   7  0
  174  2  0   0   0   0  0
  175  0  3   0   0   1  0
  176  0  0   2  33   4  0
  177  1  0   0   0   0  0
  178  0  0   5   0   0  3
  179  0  0   2  32   7  0
  180  2  0   0   0   0  0
  181  0  6   0   0   1  0
  182  0  0   2  31   4  0
  183  1  0   0   0   0  0
  184  0  0   5   0   0  6
  185  0  0   2  30   7  0
  186  2  0   0   0   0  0
  187  0  5   0   0   1  0
  188  0  0   2  29   4  0
  189  1  0   0   0   0  0
  190  0  0   5   0   0  5
  191  0  0   2  28   7  0
  192  2  0   0   0   0  0
  193  0  4   0   0   1  0
  194  0  0   2  27   4  0
  195  1  0   0   0   0  0
  196  0  0   5   0   0  4
  197  0  0   2  26   7  0
  198  2  0   0   0   0  0
  199  0  3   0   0   1  0
  200  0  0   2  25   4  0
  201  1  0   0   0   0  0
  202  0  0   5   0   0  3
  203  0  0   2  24   7  0
  204  2  0   0   0   0  0
  205  0  2   0   0   1  0
  206  0  0   2  23   4  0
  207  1  0   0   0   0  0
  208  0  0   5   0   0  2
  209  0  0   2  22   7  0
  210  2  0   0   0   0  0
  211  0  9   0   0   1  0
  212  0  0   2  21   4  0
  213  1  0   0   0   0  0
  214  0  0   5   0   0  9
  215  0  0   2  20   7  0
  216  2  0   0   0   0  0
  217  0  9   0   0   1  0
  218  0  0   2  19   4  0
  219  1  0   0   0   0  0
  220  0  0   5   0   0  9
  221  0  0   2  18   7  0
  222  2  0   0   0   0  0
  223  0  2   0   0   1  0
  224  0  0   2  17   4  0
  225  1  0   0   0   0  0
  226  0  0   5   0   0  2
  227  0  0   2  16   7  0
  228  2  0   0   0   0  0
  229  0  3   0   0   1  0
  230  0  0   2  15   4  0
  231  1  0   0   0   0  0
  232  0  0   5   0   0  3
  233  0  0   2  14   7  0
  234  2  0   0   0   0  0
  235  0  4   0   0   1  0
  236  0  0   2  13   4  0
  237  1  0   0   0   0  0
  238  0  0   5   0   0  4
  239  0  0   2  12   7  0
  240  2  0   0   0   0  0
  241  0  5   0   0   1  0
  242  0  0   2  11   4  0
  243  1  0   0   0   0  0
  244  0  0   5   0   0  5
  245  0  0   2  10   7  0
  246  2  0   0   0   0  0
  247  0  6   0   0   1  0
  248  0  0   2   9   4  0
  249  1  0   0   0   0  0
  250  0  0   5   0   0  6
  251  0  0   2   8   7  0
  252  2  0   0   0   0  0
  253  0  3   0   0   1  0
  254  0  0   2   3  49  0
  255  3  0   0   0   0  0
  256  0  0   5   0   0  3
  257  0  0   2   6  50  0
  258  2  0   0   0   0  0
  259  0  5   0   0   1  0
  260  0  0   2   8  49  0
  261  3  0   0   0   0  0
  262  0  0   5   0   0  5
  263  0  0   2   9  50  0
  264  2  0   0   0   0  0
  265  0  9   0   0   1  0
  266  0  0   2  10  49  0
  267  3  0   0   0   0  0
  268  0  0   5   0   0  9
  269  0  0   2  11  50  0
  270  2  0   0   0   0  0
  271  0  7   0   0   1  0
  272  0  0   2  12  49  0
  273  3  0   0   0   0  0
  274  0  0   5   0   0  7
  275  0  0   2  13  50  0
  276  2  0   0   0   0  0
  277  0  2   0   0   1  0
  278  0  0   2  14  49  0
  279  3  0   0   0   0  0
  280  0  0   5   0   0  2
  281  0  0   2  15  50  0
  282  2  0   0   0   0  0
  283  0  8   0   0   1  0
  284  0  0   2  16  49  0
  285  3  0   0   0   0  0
  286  0  0   5   0   0  8
  287  0  0   2  17  50  0
  288  2  0   0   0   0  0
  289  0  4   0   0   1  0
  290  0  0   2  18  49  0
  291  3  0   0   0   0  0
  292  0  0   5   0   0  4
  293  0  0   2  19  50  0
  294  2  0   0   0   0  0
  295  0  2   0   0   1  0
  296  0  0   2  20  49  0
  297  3  0   0   0   0  0
  298  0  0   5   0   0  2
  299  0  0   2  21  50  0
  300  2  0   0   0   0  0
  301  0  6   0   0   1  0
  302  0  0   2  22  49  0
  303  3  0   0   0   0  0
  304  0  0   5   0   0  6
  305  0  0   2  23  50  0
  306  2  0   0   0   0  0
  307  0  8   0   0   1  0
  308  0  0   2  24  49  0
  309  3  0   0   0   0  0
  310  0  0   5   0   0  8
  311  0  0   2  25  50  0
  312  2  0   0   0   0  0
  313  0  5   0   0   1  0
  314  0  0   2  26  49  0
  315  3  0   0   0   0  0
  316  0  0   5   0   0  5
  317  0  0   2  27  50  0
  318  2  0   0   0   0  0
  319  0  7   0   0   1  0
  320  0  0   2  28  49  0
  321  3  0   0   0   0  0
  322  0  0   5   0   0  7
  323  0  0   2  29  50  0
  324  2  0   0   0   0  0
  325  0  7   0   0   1  0
  326  0  0   2  30  49  0
  327  3  0   0   0   0  0
  328  0  0   5   0   0  7
  329  0  0   2  31  50  0
  330  2  0   0   0   0  0
  331  0  5   0   0   1  0
  332  0  0   2  32  49  0
  333  3  0   0   0   0  0
  334  0  0   5   0   0  5
  335  0  0   2  33  50  0
  336  2  0   0   0   0  0
  337  0  8   0   0   1  0
  338  0  0   2  34  49  0
  339  3  0   0   0   0  0
  340  0  0   5   0   0  8
  341  0  0   2  35  50  0
  342  2  0   0   0   0  0
  343  0  6   0   0   1  0
  344  0  0   2  36  49  0
  345  3  0   0   0   0  0
  346  0  0   5   0   0  6
  347  0  0   2  37  50  0
  348  2  0   0   0   0  0
  349  0  2   0   0   1  0
  350  0  0   2  38  49  0
  351  3  0   0   0   0  0
  352  0  0   5   0   0  2
  353  0  0   2  39  50  0
  354  2  0   0   0   0  0
  355  0  4   0   0   1  0
  356  0  0   2  40  49  0
  357  3  0   0   0   0  0
  358  0  0   5   0   0  4
  359  0  0   2  41  50  0
  360  2  0   0   0   0  0
[RF]
1       66.915 1 2 120 0 0
2       66.915 1 2 120 0 1.74533
3       66.915 1 2 120 0 5.23599
4       66.915 1 2 120 0 4.18879
5       66.915 1 2 120 0 4.88692
6       66.915 1 2 120 0 1.0472
7       66.915 1 2 120 0 3.14159
8       66.915 1 2 120 0 2.0944
9       66.915 1 2 120 0 6.28319
10      27.2331 3 4 100 0 0
11      27.2331 3 4 100 0 1.74533
12      27.2331 3 4 100 0 5.23599
13      27.2331 3 4 100 0 4.18879
14      27.2331 3 4 100 0 4.88692
15      27.2331 3 4 100 0 1.0472
16      27.2331 3 4 100 0 3.14159
17      27.2331 3 4 100 0 2.0944
18      27.2331 3 4 100 0 6.28319

# Format of trapezoid gradients:
# id amplitude rise flat fall delay
# ..      Hz/m   us   us   us    us
[TRAP]
 1         18750  20 2000  20 100
 2     -646825.4 150    0 150   0
 3     -666666.7 150    0 150   0
 4      -1075750 240   10 240   0
 5      119047.6  30 1600  30   0
 6      666666.7 150    0 150   0
 7       1112224 240 1800 240   0
 8     -634920.6 150    0 150   0
 9      634920.6 150    0 150   0
10     -646258.5 140    0 140   0
11      646258.5 140    0 140   0
12     -612244.9 140    0 140   0
13      612244.9 140    0 140   0
14     -578231.3 140    0 140   0
15      578231.3 140    0 140   0
16     -586080.6 130    0 130   0
17      586080.6 130    0 130   0
18     -549450.5 130    0 130   0
19      549450.5 130    0 130   0
20     -555555.6 120    0 120   0
21      555555.6 120    0 120   0
22       -515873 120    0 120   0
23        515873 120    0 120   0
24     -476190.5 120    0 120   0
25      476190.5 120    0 120   0
26     -476190.5 110    0 110   0
27      476190.5 110    0 110   0
28     -432900.4 110    0 110   0
29      432900.4 110    0 110   0
30     -428571.4 100    0 100   0
31      428571.4 100    0 100   0
32     -380952.4 100    0 100   0
33      380952.4 100    0 100   0
34     -370370.4  90    0  90   0
35      370370.4  90    0  90   0
36     -357142.9  80    0  80   0
37      357142.9  80    0  80   0
38       -297619  80    0  80   0
39        297619  80    0  80   0
40     -272108.8  70    0  70   0
41      272108.8  70    0  70   0
42     -238095.2  60    0  60   0
43      238095.2  60    0  60   0
44     -190476.2  50    0  50   0
45      190476.2  50    0  50   0
46     -119047.6  40    0  40   0
47      119047.6  40    0  40   0
48             0   0    0   0   0
49      -1094531 240    0 240   0
50       1109161 240 1800 240   0
51      -1068490 240    0 240   0
52       1111546 240 1790 240   0
53      -1042448 240    0 240   0
54       1113954 240 1780 240   0
55      -1060598 230    0 230   0
56       1110860 240 1780 240   0
57      -1033424 230    0 230   0
58       1113277 240 1770 240   0
59      -1006250 230    0 230   0
60       1110168 240 1770 240   0
61     -979076.1 230    0 230   0
62       1112594 240 1760 240   0
63     -995170.5 220    0 220   0
64       1109469 240 1760 240   0
65     -966761.4 220    0 220   0
66       1111903 240 1750 240   0
67     -938352.3 220    0 220   0
68       1108763 240 1750 240   0
69     -953273.8 210    0 210   0
70       1111206 240 1740 240   0
71     -923511.9 210    0 210   0
72       1113674 240 1730 240   0
73       -893750 210    0 210   0
74       1110501 240 1730 240   0
75     -907187.5 200    0 200   0
76       1112978 240 1720 240   0
77     -875937.5 200    0 200   0
78       1109790 240 1720 240   0
79     -844687.5 200    0 200   0
80       1112276 240 1710 240   0
81       -856250 190    0 190   0
82       1109071 240 1710 240   0
83     -823355.3 190    0 190   0
84       1111566 240 1700 240   0
85       -834375 180    0 180   0
86       1108344 240 1700 240   0
87     -799652.8 180    0 180   0
88       1110848 240 1690 240   0
89     -764930.6 180    0 180   0
90       1113379 240 1680 240   0
91     -773161.8 170    0 170   0
92       1110124 240 1680 240   0
93     -736397.1 170    0 170   0
94       1112664 240 1670 240   0
95     -699632.4 170    0 170   0
96       1109391 240 1670 240   0
97     -704296.9 160    0 160   0
98       1111941 240 1660 240   0
99     -665234.4 160    0 160   0
100       1108651 240 1660 240   0
101     -667916.7 150    0 150   0
102       1111210 240 1650 240   0
103       -626250 150    0 150   0
104       1113797 240 1640 240   0
105     -626339.3 140    0 140   0
106       1110472 240 1640 240   0
107     -581696.4 140    0 140   0
108       1113068 240 1630 240   0
109     -578365.4 130    0 130   0
110       1109726 240 1630 240   0
111     -530288.5 130    0 130   0
112       1112332 240 1620 240   0
113     -522395.8 120    0 120   0
114       1108972 240 1620 240   0
115     -470312.5 120    0 120   0
116       1111588 240 1610 240   0
117       -456250 110    0 110   0
118       1108209 240 1610 240   0
119       -439375 100    0 100   0
120       1110836 240 1600 240   0
121       -376875 100    0 100   0
122       1113490 240 1590 240   0
123     -349305.6  90    0  90   0
124       1110075 240 1590 240   0
125     -314843.7  80    0  80   0
126       1112740 240 1580 240   0
127     -270535.7  70    0  70   0
128       1109306 240 1580 240   0
129     -211458.3  60    0  60   0
130       1111982 240 1570 240   0
131     -160937.5  40    0  40   0
132       1108529 240 1570 240   0
133        -18750  10    0  10   0
134       1111215 240 1560 240   0
135      151562.5  40    0  40   0
136       1113932 240 1550 240   0
137      205208.3  60    0  60   0
138       1110440 240 1550 240   0
139      265178.6  70    0  70   0
140       1113167 240 1540 240   0
141      310156.2  80    0  80   0
142       1109656 240 1540 240   0
143      345138.9  90    0  90   0
144       1112394 240 1530 240   0
145      414583.3  90    0  90   0
146       1108863 240 1530 240   0
147        435625 100    0 100   0
148       1111612 240 1520 240   0
149      452840.9 110    0 110   0
150       1108061 240 1520 240   0
151      509659.1 110    0 110   0
152       1110821 240 1510 240   0
153      519270.8 120    0 120   0
154       1113614 240 1500 240   0
155      527403.8 130    0 130   0
156       1110022 240 1500 240   0
157      575480.8 130    0 130   0
158       1112825 240 1490 240   0
159      579017.9 140    0 140   0
160       1109212 240 1490 240   0
161      623660.7 140    0 140   0
162       1112028 240 1480 240   0
163        623750 150    0 150   0
164       1108394 240 1480 240   0
165      665416.7 150    0 150   0
166       1111221 240 1470 240   0
167      662890.6 160    0 160   0
168       1114081 240 1460 240   0
169      701953.1 160    0 160   0
170       1110404 240 1460 240   0
171      741015.6 160    0 160   0
172       1113277 240 1450 240   0
173      734191.2 170    0 170   0
174       1109578 240 1450 240   0
175      770955.9 170    0 170   0
176       1112463 240 1440 240   0
177      762847.2 180    0 180   0
178       1108743 240 1440 240   0
179      797569.4 180    0 180   0
180       1111639 240 1430 240   0
181      832291.7 180    0 180   0
182       1107897 240 1430 240   0
183      821381.6 190    0 190   0
184       1110806 240 1420 240   0
185      854276.3 190    0 190   0
186       1113750 240 1410 240   0
187      842812.5 200    0 200   0
188       1109962 240 1410 240   0
189      874062.5 200    0 200   0
190       1112919 240 1400 240   0
191      905312.5 200    0 200   0
192       1109108 240 1400 240   0
193      891964.3 210    0 210   0
194       1112078 240 1390 240   0
195      921726.2 210    0 210   0
196       1108244 240 1390 240   0
197      951488.1 210    0 210   0
198       1111227 240 1380 240   0
199      936647.7 220    0 220   0
200       1107369 240 1380 240   0
201      965056.8 220    0 220   0
202       1110365 240 1370 240   0
203      993465.9 220    0 220   0
204       1113398 240 1360 240   0
205      977445.7 230    0 230   0
206       1109492 240 1360 240   0
207      -1091270 240  240 240   0
208      -1111111 240  210 240   0
209      476190.5 100 2100 100   0
210       1111111 240  210 240   0
211       1111111 240 2010 240   0
212      -1093074 240  200 240   0
213       1093074 240  200 240   0
214      -1099773 240  180 240   0
215       1099773 240  180 240   0
216      -1107143 240  160 240   0
217       1107143 240  160 240   0
218      -1086691 240  150 240   0
219       1086691 240  150 240   0
220      -1093951 240  130 240   0
221       1093951 240  130 240   0
222      -1102041 240  110 240   0
223       1102041 240  110 240   0
224      -1111111 240   90 240   0
225       1111111 240   90 240   0
226      -1086310 240   80 240   0
227       1086310 240   80 240   0
228      -1095238 240   60 240   0
229       1095238 240   60 240   0
230      -1105442 240   40 240   0
231       1105442 240   40 240   0
232      -1075838 240   30 240   0
233       1075838 240   30 240   0
234      -1085714 240   10 240   0
235       1085714 240   10 240   0
236      -1051587 240    0 240   0
237       1051587 240    0 240   0
238      -1014493 230    0 230   0
239       1014493 230    0 230   0
240       -974026 220    0 220   0
241        974026 220    0 220   0
242     -929705.2 210    0 210   0
243      929705.2 210    0 210   0
244     -880952.4 200    0 200   0
245      880952.4 200    0 200   0
246     -827067.7 190    0 190   0
247      827067.7 190    0 190   0
248     -767195.8 180    0 180   0
249      767195.8 180    0 180   0
250     -700280.1 170    0 170   0
251      700280.1 170    0 170   0
252      684523.8 160    0 160   0
253     -684523.8 160    0 160   0
254      756302.5 170    0 170   0
255     -756302.5 170    0 170   0
256      820105.8 180    0 180   0
257     -820105.8 180    0 180   0
258        877193 190    0 190   0
259       -877193 190    0 190   0
260      884353.7 210    0 210   0
261     -884353.7 210    0 210   0
262      930735.9 220    0 220   0
263     -930735.9 220    0 220   0
264       1017316 220    0 220   0
265      -1017316 220    0 220   0
266       1055901 230    0 230   0
267      -1055901 230    0 230   0
268       1091270 240    0 240   0
269      -1091270 240    0 240   0
270       1080586 240   20 240   0
271      -1080586 240   20 240   0
272       1111111 240   30 240   0
273      -1111111 240   30 240   0
274       1100164 240   50 240   0
275      -1100164 240   50 240   0
276       1090630 240   70 240   0
277      -1090630 240   70 240   0
278       1082251 240   90 240   0
279      -1082251 240   90 240   0
280       1106443 240  100 240   0
281      -1106443 240  100 240   0
282       1097884 240  120 240   0
283      -1097884 240  120 240   0
284       1090226 240  140 240   0
285      -1090226 240  140 240   0
286       1111111 240  150 240   0
287      -1111111 240  150 240   0
288       1103368 240  170 240   0
289      -1103368 240  170 240   0
290       1096346 240  190 240   0
291      -1096346 240  190 240   0
292      -1100529 240  210 240   0
293      -1097222 240  210 240   0
294       1100529 240  210 240   0
295       1113281 240 2000 240   0
296      -1107420 240  190 240   0
297       1107420 240  190 240   0
298      -1088435 240  180 240   0
299       1088435 240  180 240   0
300      -1095238 240  160 240   0
301       1095238 240  160 240   0
302      -1102757 240  140 240   0
303       1102757 240  140 240   0
304      -1111111 240  120 240   0
305       1111111 240  120 240   0
306      -1088435 240  110 240   0
307       1088435 240  110 240   0
308      -1096681 240   90 240   0
309       1096681 240   90 240   0
310      -1105991 240   70 240   0
311       1105991 240   70 240   0
312      -1079365 240   60 240   0
313       1079365 240   60 240   0
314      -1088435 240   40 240   0
315       1088435 240   40 240   0
316      -1098901 240   20 240   0
317       1098901 240   20 240   0
318      -1111111 240    0 240   0
319       1111111 240    0 240   0
320      -1031746 240    0 240   0
321       1031746 240    0 240   0
322     -993788.8 230    0 230   0
323      993788.8 230    0 230   0
324       -952381 220    0 220   0
325        952381 220    0 220   0
326     -907029.5 210    0 210   0
327      907029.5 210    0 210   0
328     -857142.9 200    0 200   0
329      857142.9 200    0 200   0
330       -802005 190    0 190   0
331        802005 190    0 190   0
332     -784313.7 170    0 170   0
333      784313.7 170    0 170   0
334     -714285.7 160    0 160   0
335      714285.7 160    0 160   0
336  1.932629e-09  10    0  10   0
337      -1089947 240  210 240   0
338      -1107955 240  200 240   0
339       1089947 240  210 240   0
340       1110491 240 2000 240   0
341      -1103896 240  200 240   0
342      -1093750 240  200 240   0
343       1103896 240  200 240   0
344       1112668 240 1990 240   0
345      -1111111 240  180 240   0
346       1111111 240  180 240   0
347      -1091754 240  170 240   0
348       1091754 240  170 240   0
349      -1098901 240  150 240   0
350       1098901 240  150 240   0
351      -1106821 240  130 240   0
352       1106821 240  130 240   0
353      -1084656 240  120 240   0
354       1084656 240  120 240   0
355      -1092437 240  100 240   0
356       1092437 240  100 240   0
357      -1101190 240   80 240   0
358       1101190 240   80 240   0
359      -1111111 240   60 240   0
360       1111111 240   60 240   0
361      -1083744 240   50 240   0
362       1083744 240   50 240   0
363      -1093474 240   30 240   0
364       1093474 240   30 240   0
365      -1104762 240   10 240   0
366       1104762 240   10 240   0
367      -1071429 240    0 240   0
368       1071429 240    0 240   0
369      -1035197 230    0 230   0
370       1035197 230    0 230   0
371       -995671 220    0 220   0
372        995671 220    0 220   0
373       -952381 210    0 210   0
374        952381 210    0 210   0
375     -904761.9 200    0 200   0
376      904761.9 200    0 200   0
377     -852130.3 190    0 190   0
378      852130.3 190    0 190   0
379     -793650.8 180    0 180   0
380      793650.8 180    0 180   0
381     -728291.3 170    0 170   0
382      728291.3 170    0 170   0
383     -654761.9 160    0 160   0
384      654761.9 160    0 160   0
385      -1104651 240  190 240   0
386       1109865 240 1990 240   0
387      -1090116 240  190 240   0
388       1112050 240 1980 240   0
389      -1101190 240  180 240   0
390       1109234 240 1980 240   0
391      -1112805 240  170 240   0
392       1111425 240 1970 240   0
393      -1097561 240  170 240   0
394       1113636 240 1960 240   0
395      -1109375 240  160 240   0
396       1110795 240 1960 240   0
397      -1093750 240  160 240   0
398       1113014 240 1950 240   0
399      -1105769 240  150 240   0
400       1110160 240 1950 240   0
401      -1089744 240  150 240   0
402       1112385 240 1940 240   0
403      -1101974 240  140 240   0
404       1109518 240 1940 240   0
405      -1085526 240  140 240   0
406       1111751 240 1930 240   0
407      -1097973 240  130 240   0
408       1114005 240 1920 240   0
409       1111111 240 1920 240   0
410      -1093750 240  120 240   0
411       1113372 240 1910 240   0
412      -1107143 240  110 240   0
413       1110465 240 1910 240   0
414      -1089286 240  110 240   0
415       1112734 240 1900 240   0
416      -1102941 240  100 240   0
417       1109813 240 1900 240   0
418      -1084559 240  100 240   0
419       1112089 240 1890 240   0
420      -1098485 240   90 240   0
421       1109155 240 1890 240   0
422      -1113281 240   80 240   0
423       1111439 240 1880 240   0
424      -1093750 240   80 240   0
425       1113744 240 1870 240   0
426      -1108871 240   70 240   0
427       1110782 240 1870 240   0
428      -1088710 240   70 240   0
429       1113095 240 1860 240   0
430      -1104167 240   60 240   0
431       1110119 240 1860 240   0
432      -1083333 240   60 240   0
433       1112440 240 1850 240   0
434      -1099138 240   50 240   0
435       1109450 240 1850 240   0
436      -1077586 240   50 240   0
437       1111779 240 1840 240   0
438      -1093750 240   40 240   0
439       1108774 240 1840 240   0
440       1111111 240 1830 240   0
441      -1087963 240   30 240   0
442       1113471 240 1820 240   0
443      -1105769 240   20 240   0
444       1110437 240 1820 240   0
445      -1081731 240   20 240   0
446       1112805 240 1810 240   0
447      -1100000 240   10 240   0
448       1109756 240 1810 240   0
449      -1075000 240   10 240   0
450       1112132 240 1800 240   0
451      -1093750 240    0 240   0
452       1109069 240 1800 240   0
453      -1067708 240    0 240   0
454       1111453 240 1790 240   0
455      -1041667 240    0 240   0
456       1113861 240 1780 240   0
457      -1059783 230    0 230   0
458       1110767 240 1780 240   0
459      -1032609 230    0 230   0
460       1113184 240 1770 240   0
461      -1005435 230    0 230   0
462       1110075 240 1770 240   0
463     -978260.9 230    0 230   0
464       1112500 240 1760 240   0
465     -994318.2 220    0 220   0
466       1109375 240 1760 240   0
467     -965909.1 220    0 220   0
468       1111809 240 1750 240   0
469       -937500 220    0 220   0
470       1108668 240 1750 240   0
471       1111111 240 1740 240   0
472       -922619 210    0 210   0
473       1113579 240 1730 240   0
474     -892857.1 210    0 210   0
475       1110406 240 1730 240   0
476       -906250 200    0 200   0
477       1112883 240 1720 240   0
478       -875000 200    0 200   0
479       1109694 240 1720 240   0
480       -843750 200    0 200   0
481       1112179 240 1710 240   0
482     -855263.2 190    0 190   0
483       1108974 240 1710 240   0
484     -822368.4 190    0 190   0
485       1111469 240 1700 240   0
486     -833333.3 180    0 180   0
487       1113990 240 1690 240   0
488     -798611.1 180    0 180   0
489       1110751 240 1690 240   0
490     -763888.9 180    0 180   0
491       1113281 240 1680 240   0
492     -772058.8 170    0 170   0
493       1110026 240 1680 240   0
494     -735294.1 170    0 170   0
495       1112565 240 1670 240   0
496     -742187.5 160    0 160   0
497       1109293 240 1670 240   0
498       -703125 160    0 160   0
499       1111842 240 1660 240   0
500     -664062.5 160    0 160   0
501       1108553 240 1660 240   0
502       1111111 240 1650 240   0
503       -625000 150    0 150   0
504       1113697 240 1640 240   0
505       -625000 140    0 140   0
506       1110372 240 1640 240   0
507     -580357.1 140    0 140   0
508       1112968 240 1630 240   0
509     -576923.1 130    0 130   0
510       1109626 240 1630 240   0
511     -528846.2 130    0 130   0
512       1112231 240 1620 240   0
513     -520833.3 120    0 120   0
514       1108871 240 1620 240   0
515       -468750 120    0 120   0
516       1111486 240 1610 240   0
517     -454545.5 110    0 110   0
518       1108108 240 1610 240   0
519       -437500 100    0 100   0
520       1110734 240 1600 240   0
521     -416666.7  90    0  90   0
522       1113388 240 1590 240   0
523     -347222.2  90    0  90   0
524       1109973 240 1590 240   0
525       -312500  80    0  80   0
526       1112637 240 1580 240   0
527     -267857.1  70    0  70   0
528       1109203 240 1580 240   0
529     -208333.3  60    0  60   0
530       1111878 240 1570 240   0
531       -156250  40    0  40   0
532       1108425 240 1570 240   0
533       1111111 240 1560 240   0
534        156250  40    0  40   0
535       1113827 240 1550 240   0
536      208333.3  60    0  60   0
537       1110335 240 1550 240   0
538      267857.1  70    0  70   0
539       1113062 240 1540 240   0
540        312500  80    0  80   0
541       1109551 240 1540 240   0
542      347222.2  90    0  90   0
543       1112288 240 1530 240   0
544      416666.7  90    0  90   0
545       1108757 240 1530 240   0
546        437500 100    0 100   0
547       1111506 240 1520 240   0
548      454545.5 110    0 110   0
549       1107955 240 1520 240   0
550        468750 120    0 120   0
551       1110714 240 1510 240   0
552      520833.3 120    0 120   0
553       1113506 240 1500 240   0
554      528846.2 130    0 130   0
