# Pulseq sequence format
# Created by JEMRIS 2.8.4

[VERSION]
major 1
minor 2
revision 1

[DEFINITIONS]
Name gre_3D_nocaipi_nonsel_te25
Num_Blocks 63361
FOV 210 210 160
Slice_Thickness 160

# Format of blocks:
#   #  D RF  GX  GY  GZ ADC
[BLOCKS]
    1  0  1   0   0   1  0
    2  0  0   2   3   4  0
    3  0  0   5   0   0  1
    4  0  0   2   6   7  0
    5  0  2   0   0   1  0
    6  0  0   2   8   4  0
    7  0  0   5   0   0  2
    8  0  0   2   9   7  0
    9  0  3   0   0   1  0
   10  0  0   2  10   4  0
   11  0  0   5   0   0  3
   12  0  0   2  11   7  0
   13  0  4   0   0   1  0
   14  0  0   2  12   4  0
   15  0  0   5   0   0  4
   16  0  0   2  13   7  0
   17  0  5   0   0   1  0
   18  0  0   2  14   4  0
   19  0  0   5   0   0  5
   20  0  0   2  15   7  0
   21  0  6   0   0   1  0
   22  0  0   2  16   4  0
   23  0  0   5   0   0  6
   24  0  0   2  17   7  0
   25  0  3   0   0   1  0
   26  0  0   2  18   4  0
   27  0  0   5   0   0  3
   28  0  0   2  19   7  0
   29  0  5   0   0   1  0
   30  0  0   2  20   4  0
   31  0  0   5   0   0  5
   32  0  0   2  21   7  0
   33  0  1   0   0   1  0
   34  0  0   2  22   4  0
   35  0  0   5   0   0  1
   36  0  0   2  23   7  0
   37  0  7   0   0   1  0
   38  0  0   2  24   4  0
   39  0  0   5   0   0  7
   40  0  0   2  25   7  0
   41  0  2   0   0   1  0
   42  0  0   2  26   4  0
   43  0  0   5   0   0  2
   44  0  0   2  27   7  0
   45  0  8   0   0   1  0
   46  0  0   2  28   4  0
   47  0  0   5   0   0  8
   48  0  0   2  29   7  0
   49  0  4   0   0   1  0
   50  0  0   2  30   4  0
   51  0  0   5   0   0  4
   52  0  0   2  31   7  0
   53  0  2   0   0   1  0
   54  0  0   2  32   4  0
   55  0  0   5   0   0  2
   56  0  0   2  33   7  0
   57  0  6   0   0   1  0
   58  0  0   2  34   4  0
   59  0  0   5   0   0  6
   60  0  0   2  35   7  0
   61  0  8   0   0   1  0
   62  0  0   2  36   4  0
   63  0  0   5   0   0  8
   64  0  0   2  37   7  0
   65  0  5   0   0   1  0
   66  0  0   2  38   4  0
   67  0  0   5   0   0  5
   68  0  0   2  39   7  0
   69  0  7   0   0   1  0
   70  0  0   2  40   4  0
   71  0  0   5   0   0  7
   72  0  0   2  41   7  0
   73  0  7   0   0   1  0
   74  0  0   2  42   4  0
   75  0  0   5   0   0  7
   76  0  0   2  43   7  0
   77  0  5   0   0   1  0
   78  0  0   2  44   4  0
   79  0  0   5   0   0  5
   80  0  0   2  45   7  0
   81  0  8   0   0   1  0
   82  0  0   2  46   4  0
   83  0  0   5   0   0  8
   84  0  0   2  47   7  0
   85  0  6   0   0   1  0
   86  0  0   2  48   4  0
   87  0  0   5   0   0  6
   88  0  0   2  48   7  0
   89  0  2   0   0   1  0
   90  0  0   2  47   4  0
   91  0  0   5   0   0  2
   92  0  0   2  46   7  0
   93  0  4   0   0   1  0
   94  0  0   2  45   4  0
   95  0  0   5   0   0  4
   96  0  0   2  44   7  0
   97  0  8   0   0   1  0
   98  0  0   2  43   4  0
   99  0  0   5   0   0  8
  100  0  0   2  42   7  0
  101  0  2   0   0   1  0
  102  0  0   2  41   4  0
  103  0  0   5   0   0  2
  104  0  0   2  40   7  0
  105  0  7   0   0   1  0
  106  0  0   2  39   4  0
  107  0  0   5   0   0  7
  108  0  0   2  38   7  0
  109  0  1   0   0   1  0
  110  0  0   2  37   4  0
  111  0  0   5   0   0  1
  112  0  0   2  36   7  0
  113  0  5   0   0   1  0
  114  0  0   2  35   4  0
  115  0  0   5   0   0  5
  116  0  0   2  34   7  0
  117  0  3   0   0   1  0
  118  0  0   2  33   4  0
  119  0  0   5   0   0  3
  120  0  0   2  32   7  0
  121  0  6   0   0   1  0
  122  0  0   2  31   4  0
  123  0  0   5   0   0  6
  124  0  0   2  30   7  0
  125  0  5   0   0   1  0
  126  0  0   2  29   4  0
  127  0  0   5   0   0  5
  128  0  0   2  28   7  0
  129  0  4   0   0   1  0
  130  0  0   2  27   4  0
  131  0  0   5   0   0  4
  132  0  0   2  26   7  0
  133  0  3   0   0   1  0
  134  0  0   2  25   4  0
  135  0  0   5   0   0  3
  136  0  0   2  24   7  0
  137  0  2   0   0   1  0
  138  0  0   2  23   4  0
  139  0  0   5   0   0  2
  140  0  0   2  22   7  0
  141  0  9   0   0   1  0
  142  0  0   2  21   4  0
  143  0  0   5   0   0  9
  144  0  0   2  20   7  0
  145  0  9   0   0   1  0
  146  0  0   2  19   4  0
  147  0  0   5   0   0  9
  148  0  0   2  18   7  0
  149  0  2   0   0   1  0
  150  0  0   2  17   4  0
  151  0  0   5   0   0  2
  152  0  0   2  16   7  0
  153  0  3   0   0   1  0
  154  0  0   2  15   4  0
  155  0  0   5   0   0  3
  156  0  0   2  14   7  0
  157  0  4   0   0   1  0
  158  0  0   2  13   4  0
  159  0  0   5   0   0  4
  160  0  0   2  12   7  0
  161  0  5   0   0   1  0
  162  0  0   2  11   4  0
  163  0  0   5   0   0  5
  164  0  0   2  10   7  0
  165  0  6   0   0   1  0
  166  0  0   2   9   4  0
  167  0  0   5   0   0  6
  168  0  0   2   8   7  0
  169  0  3   0   0   1  0
  170  0  0   2   3  49  0
  171  0  0   5   0   0  3
  172  0  0   2   6  50  0
  173  0  5   0   0   1  0
  174  0  0   2   8  49  0
  175  0  0   5   0   0  5
  176  0  0   2   9  50  0
  177  0  9   0   0   1  0
  178  0  0   2  10  49  0
  179  0  0   5   0   0  9
  180  0  0   2  11  50  0
  181  0  7   0   0   1  0
  182  0  0   2  12  49  0
  183  0  0   5   0   0  7
  184  0  0   2  13  50  0
  185  0  2   0   0   1  0
  186  0  0   2  14  49  0
  187  0  0   5   0   0  2
  188  0  0   2  15  50  0
  189  0  8   0   0   1  0
  190  0  0   2  16  49  0
  191  0  0   5   0   0  8
  192  0  0   2  17  50  0
  193  0  4   0   0   1  0
  194  0  0   2  18  49  0
  195  0  0   5   0   0  4
  196  0  0   2  19  50  0
  197  0  2   0   0   1  0
  198  0  0   2  20  49  0
  199  0  0   5   0   0  2
  200  0  0   2  21  50  0
  201  0  6   0   0   1  0
  202  0  0   2  22  49  0
  203  0  0   5   0   0  6
  204  0  0   2  23  50  0
  205  0  8   0   0   1  0
  206  0  0   2  24  49  0
  207  0  0   5   0   0  8
  208  0  0   2  25  50  0
  209  0  5   0   0   1  0
  210  0  0   2  26  49  0
  211  0  0   5   0   0  5
  212  0  0   2  27  50  0
  213  0  7   0   0   1  0
  214  0  0   2  28  49  0
  215  0  0   5   0   0  7
  216  0  0   2  29  50  0
  217  0  7   0   0   1  0
  218  0  0   2  30  49  0
  219  0  0   5   0   0  7
  220  0  0   2  31  50  0
  221  0  5   0   0   1  0
  222  0  0   2  32  49  0
  223  0  0   5   0   0  5
  224  0  0   2  33  50  0
  225  0  8   0   0   1  0
  226  0  0   2  34  49  0
  227  0  0   5   0   0  8
  228  0  0   2  35  50  0
  229  0  6   0   0   1  0
  230  0  0   2  36  49  0
  231  0  0   5   0   0  6
  232  0  0   2  37  50  0
  233  0  2   0   0   1  0
  234  0  0   2  38  49  0
  235  0  0   5   0   0  2
  236  0  0   2  39  50  0
  237  0  4   0   0   1  0
  238  0  0   2  40  49  0
  239  0  0   5   0   0  4
  240  0  0   2  41  50  0
  241  0  8   0   0   1  0
  242  0  0   2  42  49  0
  243  0  0   5   0   0  8
  244  0  0   2  43  50  0
  245  0  2   0   0   1  0
  246  0  0   2  44  49  0
  247  0  0   5   0   0  2
  248  0  0   2  45  50  0
  249  0  7   0   0   1  0
  250  0  0   2  46  49  0
  251  0  0   5   0   0  7
  252  0  0   2  47  50  0
  253  0  9   0   0   1  0
  254  0  0   2  48  49  0
  255  0  0   5   0   0  9
  256  0  0   2  48  50  0
  257  0  5   0   0   1  0
  258  0  0   2  47  49  0
  259  0  0   5   0   0  5
  260  0  0   2  46  50  0
  261  0  3   0   0   1  0
  262  0  0   2  45  49  0
  263  0  0   5   0   0  3
  264  0  0   2  44  50  0
  265  0  6   0   0   1  0
  266  0  0   2  43  49  0
  267  0  0   5   0   0  6
  268  0  0   2  42  50  0
  269  0  5   0   0   1  0
  270  0  0   2  41  49  0
  271  0  0   5   0   0  5
  272  0  0   2  40  50  0
  273  0  4   0   0   1  0
  274  0  0   2  39  49  0
  275  0  0   5   0   0  4
  276  0  0   2  38  50  0
  277  0  3   0   0   1  0
  278  0  0   2  37  49  0
  279  0  0   5   0   0  3
  280  0  0   2  36  50  0
  281  0  2   0   0   1  0
  282  0  0   2  35  49  0
  283  0  0   5   0   0  2
  284  0  0   2  34  50  0
  285  0  9   0   0   1  0
  286  0  0   2  33  49  0
  287  0  0   5   0   0  9
  288  0  0   2  32  50  0
  289  0  1   0   0   1  0
  290  0  0   2  31  49  0
  291  0  0   5   0   0  1
  292  0  0   2  30  50  0
  293  0  2   0   0   1  0
  294  0  0   2  29  49  0
  295  0  0   5   0   0  2
  296  0  0   2  28  50  0
  297  0  3   0   0   1  0
  298  0  0   2  27  49  0
  299  0  0   5   0   0  3
  300  0  0   2  26  50  0
  301  0  4   0   0   1  0
  302  0  0   2  25  49  0
  303  0  0   5   0   0  4
  304  0  0   2  24  50  0
  305  0  5   0   0   1  0
  306  0  0   2  23  49  0
  307  0  0   5   0   0  5
  308  0  0   2  22  50  0
  309  0  6   0   0   1  0
  310  0  0   2  21  49  0
  311  0  0   5   0   0  6
  312  0  0   2  20  50  0
  313  0  3   0   0   1  0
  314  0  0   2  19  49  0
  315  0  0   5   0   0  3
  316  0  0   2  18  50  0
  317  0  5   0   0   1  0
  318  0  0   2  17  49  0
  319  0  0   5   0   0  5
  320  0  0   2  16  50  0
  321  0  9   0   0   1  0
  322  0  0   2  15  49  0
  323  0  0   5   0   0  9
  324  0  0   2  14  50  0
  325  0  7   0   0   1  0
  326  0  0   2  13  49  0
  327  0  0   5   0   0  7
  328  0  0   2  12  50  0
  329  0  2   0   0   1  0
  330  0  0   2  11  49  0
  331  0  0   5   0   0  2
  332  0  0   2  10  50  0
  333  0  8   0   0   1  0
  334  0  0   2   9  49  0
  335  0  0   5   0   0  8
  336  0  0   2   8  50  0
  337  0  4   0   0   1  0
  338  0  0   2   3  51  0
  339  0  0   5   0   0  4
  340  0  0   2   6  52  0
  341  0  2   0   0   1  0
  342  0  0   2   8  51  0
  343  0  0   5   0   0  2
  344  0  0   2   9  52  0
  345  0  6   0   0   1  0
  346  0  0   2  10  51  0
  347  0  0   5   0   0  6
  348  0  0   2  11  52  0
  349  0  8   0   0   1  0
  350  0  0   2  12  51  0
  351  0  0   5   0   0  8
  352  0  0   2  13  52  0
  353  0  5   0   0   1  0
  354  0  0   2  14  51  0
  355  0  0   5   0   0  5
  356  0  0   2  15  52  0
  357  0  7   0   0   1  0
  358  0  0   2  16  51  0
  359  0  0   5   0   0  7
  360  0  0   2  17  52  0
  361  0  7   0   0   1  0
[RF]
1       66.915 1 2 120 0 0
2       66.915 1 2 120 0 1.74533
3       66.915 1 2 120 0 5.23599
4       66.915 1 2 120 0 4.18879
5       66.915 1 2 120 0 4.88692
6       66.915 1 2 120 0 1.0472
7       66.915 1 2 120 0 3.14159
8       66.915 1 2 120 0 2.0944
9       66.915 1 2 120 0 6.28319
10      27.2331 3 4 100 0 0

# Format of trapezoid gradients:
# id amplitude rise flat fall delay
# ..      Hz/m   us   us   us    us
[TRAP]
 1         18750  20 2000  20 100
 2     -693027.2 140    0 140   0
 3     -714285.7 140    0 140   0
 4      -1169293 230    0 230   0
 5      119047.6  30 1600  30   0
 6      714285.7 140    0 140   0
 7       1427005 260 1330 260   0
 8     -680272.1 140    0 140   0
 9      680272.1 140    0 140   0
10     -695970.7 130    0 130   0
11      695970.7 130    0 130   0
12     -659340.7 130    0 130   0
13      659340.7 130    0 130   0
14     -622710.6 130    0 130   0
15      622710.6 130    0 130   0
16     -634920.6 120    0 120   0
17      634920.6 120    0 120   0
18     -595238.1 120    0 120   0
19      595238.1 120    0 120   0
20     -555555.6 120    0 120   0
21      555555.6 120    0 120   0
22     -562770.6 110    0 110   0
23      562770.6 110    0 110   0
24     -519480.5 110    0 110   0
25      519480.5 110    0 110   0
26     -523809.5 100    0 100   0
27      523809.5 100    0 100   0
28     -476190.5 100    0 100   0
29      476190.5 100    0 100   0
30     -476190.5  90    0  90   0
31      476190.5  90    0  90   0
32     -423280.4  90    0  90   0
33      423280.4  90    0  90   0
34     -416666.7  80    0  80   0
35      416666.7  80    0  80   0
36     -357142.9  80    0  80   0
37      357142.9  80    0  80   0
38     -340136.1  70    0  70   0
39      340136.1  70    0  70   0
40     -317460.3  60    0  60   0
41      317460.3  60    0  60   0
42     -238095.2  60    0  60   0
43      238095.2  60    0  60   0
44     -190476.2  50    0  50   0
45      190476.2  50    0  50   0
46     -158730.2  30    0  30   0
47      158730.2  30    0  30   0
48             0   0    0   0   0
49      -1194034 220    0 220   0
50       1432081 260 1320 260   0
51      -1165625 220    0 220   0
52       1428125 260 1320 260   0
53      -1137216 220    0 220   0
54       1424169 260 1320 260   0
55      -1108807 220    0 220   0
56       1429260 260 1310 260   0
57      -1131845 210    0 210   0
58       1425279 260 1310 260   0
59      -1102083 210    0 210   0
60       1430409 260 1300 260   0
61      -1072321 210    0 210   0
62       1426402 260 1300 260   0
63      -1094688 200    0 200   0
64       1431573 260 1290 260   0
65      -1063437 200    0 200   0
66       1427540 260 1290 260   0
67      -1032188 200    0 200   0
68       1423508 260 1290 260   0
69      -1000937 200    0 200   0
70       1428693 260 1280 260   0
71      -1020724 190    0 190   0
72       1424635 260 1280 260   0
73     -987828.9 190    0 190   0
74       1429861 260 1270 260   0
75     -954934.2 190    0 190   0
76       1425776 260 1270 260   0
77     -973263.9 180    0 180   0
78       1431044 260 1260 260   0
79     -938541.7 180    0 180   0
80       1426933 260 1260 260   0
81     -903819.4 180    0 180   0
82       1432243 260 1250 260   0
83     -920220.6 170    0 170   0
84       1428104 260 1250 260   0
85     -883455.9 170    0 170   0
86       1423965 260 1250 260   0
87     -846691.2 170    0 170   0
88       1429292 260 1240 260   0
89     -860546.9 160    0 160   0
90       1425125 260 1240 260   0
91     -821484.4 160    0 160   0
92       1430495 260 1230 260   0
93     -782421.9 160    0 160   0
94       1426300 260 1230 260   0
95     -792916.7 150    0 150   0
96       1431715 260 1220 260   0
97       -751250 150    0 150   0
98       1427492 260 1220 260   0
99     -760267.9 140    0 140   0
100       1423269 260 1220 260   0
101       -715625 140    0 140   0
102       1428699 260 1210 260   0
103     -670982.1 140    0 140   0
104       1424447 260 1210 260   0
105     -674519.2 130    0 130   0
106       1429923 260 1200 260   0
107     -626442.3 130    0 130   0
108       1425642 260 1200 260   0
109     -626562.5 120    0 120   0
110       1431164 260 1190 260   0
111     -574479.2 120    0 120   0
112       1426853 260 1190 260   0
113     -569886.4 110    0 110   0
114       1422543 260 1190 260   0
115     -513068.2 110    0 110   0
116       1428082 260 1180 260   0
117       -501875 100    0 100   0
118       1423741 260 1180 260   0
119     -488194.4  90    0  90   0
120       1429327 260 1170 260   0
121       -418750  90    0  90   0
122       1424956 260 1170 260   0
123     -392968.7  80    0  80   0
124       1430590 260 1160 260   0
125     -359821.4  70    0  70   0
126       1426188 260 1160 260   0
127       -315625  60    0  60   0
128       1431871 260 1150 260   0
129       -253750  50    0  50   0
130       1427438 260 1150 260   0
131     -160937.5  40    0  40   0
132       1423005 260 1150 260   0
133        -18750  10    0  10   0
134       1428705 260 1140 260   0
135      151562.5  40    0  40   0
136       1424241 260 1140 260   0
137        246250  50    0  50   0
138       1429991 260 1130 260   0
139        309375  60    0  60   0
140       1425495 260 1130 260   0
141      354464.3  70    0  70   0
142       1431295 260 1120 260   0
143      388281.3  80    0  80   0
144       1426766 260 1120 260   0
145      414583.3  90    0  90   0
146       1422237 260 1120 260   0
147      484027.8  90    0  90   0
148       1428057 260 1110 260   0
149        498125 100    0 100   0
150       1423495 260 1110 260   0
151      509659.1 110    0 110   0
152       1429366 260 1100 260   0
153      566477.3 110    0 110   0
154       1424770 260 1100 260   0
155      571354.2 120    0 120   0
156       1430694 260 1090 260   0
157      623437.5 120    0 120   0
158       1426065 260 1090 260   0
159      623557.7 130    0 130   0
160       1432043 260 1080 260   0
161      671634.6 130    0 130   0
162       1427379 260 1080 260   0
163      668303.6 140    0 140   0
164       1422715 260 1080 260   0
165      712946.4 140    0 140   0
166       1428712 260 1070 260   0
167      757589.3 140    0 140   0
168       1424013 260 1070 260   0
169        748750 150    0 150   0
170       1430066 260 1060 260   0
171      790416.7 150    0 150   0
172       1425331 260 1060 260   0
173      780078.1 160    0 160   0
174       1431441 260 1050 260   0
175      819140.6 160    0 160   0
176       1426670 260 1050 260   0
177      858203.1 160    0 160   0
178       1421899 260 1050 260   0
179      844485.3 170    0 170   0
180       1428029 260 1040 260   0
181        881250 170    0 170   0
182       1423221 260 1040 260   0
183      918014.7 170    0 170   0
184       1429409 260 1030 260   0
185      901736.1 180    0 180   0
186       1424564 260 1030 260   0
187      936458.3 180    0 180   0
188       1430811 260 1020 260   0
189      971180.6 180    0 180   0
190       1425928 260 1020 260   0
191      952960.5 190    0 190   0
192       1432234 260 1010 260   0
193      985855.3 190    0 190   0
194       1427313 260 1010 260   0
195       1018750 190    0 190   0
196       1422392 260 1010 260   0
197      999062.5 200    0 200   0
198       1428720 260 1000 260   0
199       1030312 200    0 200   0
200       1423760 260 1000 260   0
201       1061562 200    0 200   0
202       1430150 260  990 260   0
203       1092812 200    0 200   0
204       1425150 260  990 260   0
205       1070536 210    0 210   0
206       1431603 260  980 260   0
207      -1409266 260  110 260   0
208      -1428571 260   90 260   0
209      -1428571 260   90 260   0
210      476190.5  90 2100  90   0
211       1428571 260   90 260   0
212       1428571 260 1490 260   0
213      -1414566 260   80 260   0
214       1414566 260   80 260   0
215      -1399711 260   70 260   0
216       1399711 260   70 260   0
217      -1428571 260   50 260   0
218       1428571 260   50 260   0
219      -1412698 260   40 260   0
220       1412698 260   40 260   0
221      -1395731 260   30 260   0
222       1395731 260   30 260   0
223      -1428571 260   10 260   0
224       1428571 260   10 260   0
225      -1410256 260    0 260   0
226       1410256 260    0 260   0
227      -1336996 260    0 260   0
228       1336996 260    0 260   0
229      -1314286 250    0 250   0
230       1314286 250    0 250   0
231      -1289683 240    0 240   0
232       1289683 240    0 240   0
233      -1262940 230    0 230   0
234       1262940 230    0 230   0
235      -1180124 230    0 230   0
236       1180124 230    0 230   0
237      -1147186 220    0 220   0
238       1147186 220    0 220   0
239      -1111111 210    0 210   0
240       1111111 210    0 210   0
241      -1071429 200    0 200   0
242       1071429 200    0 200   0
243      -1027569 190    0 190   0
244       1027569 190    0 190   0
245       -978836 180    0 180   0
246        978836 180    0 180   0
247     -924369.7 170    0 170   0
248      924369.7 170    0 170   0
249     -863095.2 160    0 160   0
250      863095.2 160    0 160   0
251     -793650.8 150    0 150   0
252      793650.8 150    0 150   0
253     -714285.7 140    0 140   0
254      714285.7 140    0 140   0
255     -622710.6 130    0 130   0
256      622710.6 130    0 130   0
257     -562770.6 110    0 110   0
258      562770.6 110    0 110   0
259     -476190.5  90    0  90   0
260      476190.5  90    0  90   0
261     -340136.1  70    0  70   0
262      340136.1  70    0  70   0
263     -158730.2  30    0  30   0
264      158730.2  30    0  30   0
265      238095.2  60    0  60   0
266     -238095.2  60    0  60   0
267      416666.7  80    0  80   0
268     -416666.7  80    0  80   0
269      523809.5 100    0 100   0
270     -523809.5 100    0 100   0
271      595238.1 120    0 120   0
272     -595238.1 120    0 120   0
273      695970.7 130    0 130   0
274     -695970.7 130    0 130   0
275      730158.7 150    0 150   0
276     -730158.7 150    0 150   0
277      803571.4 160    0 160   0
278     -803571.4 160    0 160   0
279      868347.3 170    0 170   0
280     -868347.3 170    0 170   0
281      925925.9 180    0 180   0
282     -925925.9 180    0 180   0
283      977443.6 190    0 190   0
284     -977443.6 190    0 190   0
285       1023810 200    0 200   0
286      -1023810 200    0 200   0
287       1065760 210    0 210   0
288      -1065760 210    0 210   0
289       1156463 210    0 210   0
290      -1156463 210    0 210   0
291       1190476 220    0 220   0
292      -1190476 220    0 220   0
293       1221532 230    0 230   0
294      -1221532 230    0 230   0
295       1250000 240    0 240   0
296      -1250000 240    0 240   0
297       1276190 250    0 250   0
298      -1276190 250    0 250   0
299       1352381 250    0 250   0
300      -1352381 250    0 250   0
301       1373626 260    0 260   0
302      -1373626 260    0 260   0
303       1393298 260   10 260   0
304      -1393298 260   10 260   0
305       1411565 260   20 260   0
306      -1411565 260   20 260   0
307       1428571 260   30 260   0
308      -1428571 260   30 260   0
309       1397849 260   50 260   0
310      -1397849 260   50 260   0
311       1413690 260   60 260   0
312      -1413690 260   60 260   0
313       1428571 260   70 260   0
314      -1428571 260   70 260   0
315      -1410714 260   90 260   0
316       1425000 260 1490 260   0
317      -1392857 260   90 260   0
318       1429598 260 1480 260   0
319      -1415441 260   80 260   0
320       1426006 260 1480 260   0
321      -1397059 260   80 260   0
322       1430636 260 1470 260   0
323      -1420455 260   70 260   0
324       1427023 260 1470 260   0
325      -1401515 260   70 260   0
326       1431686 260 1460 260   0
327      -1425781 260   60 260   0
328       1428052 260 1460 260   0
329      -1406250 260   60 260   0
330       1424419 260 1460 260   0
331      -1431452 260   50 260   0
332       1429094 260 1450 260   0
333      -1411290 260   50 260   0
334       1425439 260 1450 260   0
335      -1391129 260   50 260   0
336       1430147 260 1440 260   0
337      -1416667 260   40 260   0
338       1426471 260 1440 260   0
339      -1395833 260   40 260   0
340       1431213 260 1430 260   0
341      -1422414 260   30 260   0
342       1427515 260 1430 260   0
343      -1400862 260   30 260   0
344       1432292 260 1420 260   0
345      -1428571 260   20 260   0
346       1428571 260 1420 260   0
347      -1406250 260   20 260   0
348       1424851 260 1420 260   0
349      -1383929 260   20 260   0
350       1429641 260 1410 260   0
351      -1412037 260   10 260   0
352       1425898 260 1410 260   0
353      -1388889 260   10 260   0
354       1430723 260 1400 260   0
355      -1418269 260    0 260   0
356       1426958 260 1400 260   0
357      -1394231 260    0 260   0
358       1431818 260 1390 260   0
359      -1370192 260    0 260   0
360       1428030 260 1390 260   0
361      -1346154 260    0 260   0
362       1424242 260 1390 260   0
363      -1375000 250    0 250   0
364       1429116 260 1380 260   0
365      -1350000 250    0 250   0
366       1425305 260 1380 260   0
367      -1325000 250    0 250   0
368       1430215 260 1370 260   0
369      -1300000 250    0 250   0
370       1426380 260 1370 260   0
371      -1275000 250    0 250   0
372       1431327 260 1360 260   0
373      -1302083 240    0 240   0
374       1427469 260 1360 260   0
375      -1276042 240    0 240   0
376       1423611 260 1360 260   0
377      -1250000 240    0 240   0
378       1428571 260 1350 260   0
379      -1223958 240    0 240   0
380       1424689 260 1350 260   0
381      -1250000 230    0 230   0
382       1429688 260 1340 260   0
383      -1222826 230    0 230   0
384       1425781 260 1340 260   0
385      -1195652 230    0 230   0
386       1430818 260 1330 260   0
387      -1168478 230    0 230   0
388       1426887 260 1330 260   0
389      -1193182 220    0 220   0
390       1431962 260 1320 260   0
391      -1164773 220    0 220   0
392       1428006 260 1320 260   0
393      -1136364 220    0 220   0
394       1424051 260 1320 260   0
395      -1107955 220    0 220   0
396       1429140 260 1310 260   0
397      -1130952 210    0 210   0
398       1425159 260 1310 260   0
399      -1101190 210    0 210   0
400       1430288 260 1300 260   0
401      -1071429 210    0 210   0
402       1426282 260 1300 260   0
403      -1093750 200    0 200   0
404       1431452 260 1290 260   0
405      -1062500 200    0 200   0
406       1427419 260 1290 260   0
407      -1031250 200    0 200   0
408       1423387 260 1290 260   0
409      -1000000 200    0 200   0
410       1428571 260 1280 260   0
411      -1019737 190    0 190   0
412       1424513 260 1280 260   0
413     -986842.1 190    0 190   0
414       1429739 260 1270 260   0
415     -953947.4 190    0 190   0
416       1425654 260 1270 260   0
417     -972222.2 180    0 180   0
418       1430921 260 1260 260   0
419       -937500 180    0 180   0
420       1426809 260 1260 260   0
421     -902777.8 180    0 180   0
422       1432119 260 1250 260   0
423     -919117.6 170    0 170   0
424       1427980 260 1250 260   0
425     -882352.9 170    0 170   0
426       1423841 260 1250 260   0
427     -845588.2 170    0 170   0
428       1429167 260 1240 260   0
429       -859375 160    0 160   0
430       1425000 260 1240 260   0
431     -820312.5 160    0 160   0
432       1430369 260 1230 260   0
433       -781250 160    0 160   0
434       1426174 260 1230 260   0
435     -791666.7 150    0 150   0
436       1431588 260 1220 260   0
437       -750000 150    0 150   0
438       1427365 260 1220 260   0
439     -758928.6 140    0 140   0
440       1423142 260 1220 260   0
441     -714285.7 140    0 140   0
442       1428571 260 1210 260   0
443     -669642.9 140    0 140   0
444       1424320 260 1210 260   0
445     -673076.9 130    0 130   0
446       1429795 260 1200 260   0
447       -625000 130    0 130   0
448       1425514 260 1200 260   0
449       -625000 120    0 120   0
450       1431034 260 1190 260   0
451     -572916.7 120    0 120   0
452       1426724 260 1190 260   0
453     -568181.8 110    0 110   0
454       1432292 260 1180 260   0
455     -511363.6 110    0 110   0
456       1427951 260 1180 260   0
457       -500000 100    0 100   0
458       1423611 260 1180 260   0
459     -486111.1  90    0  90   0
460       1429196 260 1170 260   0
461     -416666.7  90    0  90   0
462       1424825 260 1170 260   0
463       -390625  80    0  80   0
464       1430458 260 1160 260   0
465     -357142.9  70    0  70   0
466       1426056 260 1160 260   0
467       -312500  60    0  60   0
468       1431738 260 1150 260   0
469       -250000  50    0  50   0
470       1427305 260 1150 260   0
471       -156250  40    0  40   0
472       1422872 260 1150 260   0
473             0   0    0   0   0
474       1428571 260 1140 260   0
475        156250  40    0  40   0
476       1424107 260 1140 260   0
477        250000  50    0  50   0
478       1429856 260 1130 260   0
479        312500  60    0  60   0
480       1425360 260 1130 260   0
481      357142.9  70    0  70   0
482       1431159 260 1120 260   0
483        390625  80    0  80   0
484       1426630 260 1120 260   0
485      416666.7  90    0  90   0
486       1422101 260 1120 260   0
487      486111.1  90    0  90   0
488       1427920 260 1110 260   0
489        500000 100    0 100   0
490       1423358 260 1110 260   0
491      511363.6 110    0 110   0
492       1429228 260 1100 260   0
493      568181.8 110    0 110   0
494       1424632 260 1100 260   0
495      572916.7 120    0 120   0
496       1430556 260 1090 260   0
497        625000 120    0 120   0
498       1425926 260 1090 260   0
499        625000 130    0 130   0
500       1431903 260 1080 260   0
501      673076.9 130    0 130   0
502       1427239 260 1080 260   0
503      669642.9 140    0 140   0
504       1422575 260 1080 260   0
505      714285.7 140    0 140   0
506       1428571 260 1070 260   0
507      758928.6 140    0 140   0
508       1423872 260 1070 260   0
509        750000 150    0 150   0
510       1429924 260 1060 260   0
511      791666.7 150    0 150   0
512       1425189 260 1060 260   0
513        781250 160    0 160   0
514       1431298 260 1050 260   0
515      820312.5 160    0 160   0
516       1426527 260 1050 260   0
517        859375 160    0 160   0
518       1421756 260 1050 260   0
519      845588.2 170    0 170   0
520       1427885 260 1040 260   0
521      882352.9 170    0 170   0
522       1423077 260 1040 260   0
523      919117.6 170    0 170   0
524       1429264 260 1030 260   0
525      902777.8 180    0 180   0
526       1424419 260 1030 260   0
527        937500 180    0 180   0
528       1430664 260 1020 260   0
529      972222.2 180    0 180   0
530       1425781 260 1020 260   0
531      953947.4 190    0 190   0
532       1432087 260 1010 260   0
533      986842.1 190    0 190   0
534       1427165 260 1010 260   0
535       1019737 190    0 190   0
536       1422244 260 1010 260   0
537       1000000 200    0 200   0
538       1428571 260 1000 260   0
539       1031250 200    0 200   0
540       1423611 260 1000 260   0
541       1062500 200    0 200   0
542       1430000 260  990 260   0
543       1093750 200    0 200   0
544       1425000 260  990 260   0
545       1071429 210    0 210   0
546       1431452 260  980 260   0
547       1101190 210    0 210   0
548       1426411 260  980 260   0
549       1130952 210    0 210   0
550       1421371 260  980 260   0
551       1107955 220    0 220   0
552       1427846 260  970 260   0
553       1136364 220    0 220   0
554       1422764 260  970 260   0
555       1164773 220    0 220   0
556       1429303 260  960 260   0
557       1193182 220    0 220   0
558       1424180 260  960 260   0
559       1168478 230    0 230   0
560       1430785 260  950 260   0
561       1195652 230    0 230   0
