# Pulseq sequence format
# Created by JEMRIS 2.8.4

[VERSION]
major 1
minor 2
revision 1

[DEFINITIONS]
Name gre_3D_caipi_nonsel_te25
Num_Blocks 63361
FOV 210 210 160
Slice_Thickness 160

# Format of blocks:
#   #  D RF  GX  GY  GZ ADC
[BLOCKS]
    1  0  1   0   0   1  0
    2  0  0   2   3   4  0
    3  0  0   5   0   0  1
    4  0  0   2   6   7  0
    5  0  2   0   0   1  0
    6  0  0   2   8   4  0
    7  0  0   5   0   0  2
    8  0  0   2   9   7  0
    9  0  3   0   0   1  0
   10  0  0   2  10   4  0
   11  0  0   5   0   0  3
   12  0  0   2  11   7  0
   13  0  4   0   0   1  0
   14  0  0   2  12   4  0
   15  0  0   5   0   0  4
   16  0  0   2  13   7  0
   17  0  5   0   0   1  0
   18  0  0   2  14   4  0
   19  0  0   5   0   0  5
   20  0  0   2  15   7  0
   21  0  6   0   0   1  0
   22  0  0   2  16   4  0
   23  0  0   5   0   0  6
   24  0  0   2  17   7  0
   25  0  3   0   0   1  0
   26  0  0   2  18   4  0
   27  0  0   5   0   0  3
   28  0  0   2  19   7  0
   29  0  5   0   0   1  0
   30  0  0   2  20   4  0
   31  0  0   5   0   0  5
   32  0  0   2  21   7  0
   33  0  1   0   0   1  0
   34  0  0   2  22   4  0
   35  0  0   5   0   0  1
   36  0  0   2  23   7  0
   37  0  7   0   0   1  0
   38  0  0   2  24   4  0
   39  0  0   5   0   0  7
   40  0  0   2  25   7  0
   41  0  2   0   0   1  0
   42  0  0   2  26   4  0
   43  0  0   5   0   0  2
   44  0  0   2  27   7  0
   45  0  8   0   0   1  0
   46  0  0   2  28   4  0
   47  0  0   5   0   0  8
   48  0  0   2  29   7  0
   49  0  4   0   0   1  0
   50  0  0   2  30   4  0
   51  0  0   5   0   0  4
   52  0  0   2  31   7  0
   53  0  2   0   0   1  0
   54  0  0   2  32   4  0
   55  0  0   5   0   0  2
   56  0  0   2  33   7  0
   57  0  6   0   0   1  0
   58  0  0   2  34   4  0
   59  0  0   5   0   0  6
   60  0  0   2  35   7  0
   61  0  8   0   0   1  0
   62  0  0   2  36   4  0
   63  0  0   5   0   0  8
   64  0  0   2  37   7  0
   65  0  5   0   0   1  0
   66  0  0   2  38   4  0
   67  0  0   5   0   0  5
   68  0  0   2  39   7  0
   69  0  7   0   0   1  0
   70  0  0   2  40   4  0
   71  0  0   5   0   0  7
   72  0  0   2  41   7  0
   73  0  7   0   0   1  0
   74  0  0   2  42   4  0
   75  0  0   5   0   0  7
   76  0  0   2  43   7  0
   77  0  5   0   0   1  0
   78  0  0   2  44   4  0
   79  0  0   5   0   0  5
   80  0  0   2  45   7  0
   81  0  8   0   0   1  0
   82  0  0   2  46   4  0
   83  0  0   5   0   0  8
   84  0  0   2  47   7  0
   85  0  6   0   0   1  0
   86  0  0   2  48   4  0
   87  0  0   5   0   0  6
   88  0  0   2  48   7  0
   89  0  2   0   0   1  0
   90  0  0   2  47   4  0
   91  0  0   5   0   0  2
   92  0  0   2  46   7  0
   93  0  4   0   0   1  0
   94  0  0   2  45   4  0
   95  0  0   5   0   0  4
   96  0  0   2  44   7  0
   97  0  8   0   0   1  0
   98  0  0   2  43   4  0
   99  0  0   5   0   0  8
  100  0  0   2  42   7  0
  101  0  2   0   0   1  0
  102  0  0   2  41   4  0
  103  0  0   5   0   0  2
  104  0  0   2  40   7  0
  105  0  7   0   0   1  0
  106  0  0   2  39   4  0
  107  0  0   5   0   0  7
  108  0  0   2  38   7  0
  109  0  1   0   0   1  0
  110  0  0   2  37   4  0
  111  0  0   5   0   0  1
  112  0  0   2  36   7  0
  113  0  5   0   0   1  0
  114  0  0   2  35   4  0
  115  0  0   5   0   0  5
  116  0  0   2  34   7  0
  117  0  3   0   0   1  0
  118  0  0   2  33   4  0
  119  0  0   5   0   0  3
  120  0  0   2  32   7  0
  121  0  6   0   0   1  0
  122  0  0   2  31   4  0
  123  0  0   5   0   0  6
  124  0  0   2  30   7  0
  125  0  5   0   0   1  0
  126  0  0   2  29   4  0
  127  0  0   5   0   0  5
  128  0  0   2  28   7  0
  129  0  4   0   0   1  0
  130  0  0   2  27   4  0
  131  0  0   5   0   0  4
  132  0  0   2  26   7  0
  133  0  3   0   0   1  0
  134  0  0   2  25   4  0
  135  0  0   5   0   0  3
  136  0  0   2  24   7  0
  137  0  2   0   0   1  0
  138  0  0   2  23   4  0
  139  0  0   5   0   0  2
  140  0  0   2  22   7  0
  141  0  9   0   0   1  0
  142  0  0   2  21   4  0
  143  0  0   5   0   0  9
  144  0  0   2  20   7  0
  145  0  9   0   0   1  0
  146  0  0   2  19   4  0
  147  0  0   5   0   0  9
  148  0  0   2  18   7  0
  149  0  2   0   0   1  0
  150  0  0   2  17   4  0
  151  0  0   5   0   0  2
  152  0  0   2  16   7  0
  153  0  3   0   0   1  0
  154  0  0   2  15   4  0
  155  0  0   5   0   0  3
  156  0  0   2  14   7  0
  157  0  4   0   0   1  0
  158  0  0   2  13   4  0
  159  0  0   5   0   0  4
  160  0  0   2  12   7  0
  161  0  5   0   0   1  0
  162  0  0   2  11   4  0
  163  0  0   5   0   0  5
  164  0  0   2  10   7  0
  165  0  6   0   0   1  0
  166  0  0   2   9   4  0
  167  0  0   5   0   0  6
  168  0  0   2   8   7  0
  169  0  3   0   0   1  0
  170  0  0   2   3  49  0
  171  0  0   5   0   0  3
  172  0  0   2   6  50  0
  173  0  5   0   0   1  0
  174  0  0   2   8  49  0
  175  0  0   5   0   0  5
  176  0  0   2   9  50  0
  177  0  9   0   0   1  0
  178  0  0   2  10  49  0
  179  0  0   5   0   0  9
  180  0  0   2  11  50  0
  181  0  7   0   0   1  0
  182  0  0   2  12  49  0
  183  0  0   5   0   0  7
  184  0  0   2  13  50  0
  185  0  2   0   0   1  0
  186  0  0   2  14  49  0
  187  0  0   5   0   0  2
  188  0  0   2  15  50  0
  189  0  8   0   0   1  0
  190  0  0   2  16  49  0
  191  0  0   5   0   0  8
  192  0  0   2  17  50  0
  193  0  4   0   0   1  0
  194  0  0   2  18  49  0
  195  0  0   5   0   0  4
  196  0  0   2  19  50  0
  197  0  2   0   0   1  0
  198  0  0   2  20  49  0
  199  0  0   5   0   0  2
  200  0  0   2  21  50  0
  201  0  6   0   0   1  0
  202  0  0   2  22  49  0
  203  0  0   5   0   0  6
  204  0  0   2  23  50  0
  205  0  8   0   0   1  0
  206  0  0   2  24  49  0
  207  0  0   5   0   0  8
  208  0  0   2  25  50  0
  209  0  5   0   0   1  0
  210  0  0   2  26  49  0
  211  0  0   5   0   0  5
  212  0  0   2  27  50  0
  213  0  7   0   0   1  0
  214  0  0   2  28  49  0
  215  0  0   5   0   0  7
  216  0  0   2  29  50  0
  217  0  7   0   0   1  0
  218  0  0   2  30  49  0
  219  0  0   5   0   0  7
  220  0  0   2  31  50  0
  221  0  5   0   0   1  0
  222  0  0   2  32  49  0
  223  0  0   5   0   0  5
  224  0  0   2  33  50  0
  225  0  8   0   0   1  0
  226  0  0   2  34  49  0
  227  0  0   5   0   0  8
  228  0  0   2  35  50  0
  229  0  6   0   0   1  0
  230  0  0   2  36  49  0
  231  0  0   5   0   0  6
  232  0  0   2  37  50  0
  233  0  2   0   0   1  0
  234  0  0   2  38  49  0
  235  0  0   5   0   0  2
  236  0  0   2  39  50  0
  237  0  4   0   0   1  0
  238  0  0   2  40  49  0
  239  0  0   5   0   0  4
  240  0  0   2  41  50  0
  241  0  8   0   0   1  0
  242  0  0   2  42  49  0
  243  0  0   5   0   0  8
  244  0  0   2  43  50  0
  245  0  2   0   0   1  0
  246  0  0   2  44  49  0
  247  0  0   5   0   0  2
  248  0  0   2  45  50  0
  249  0  7   0   0   1  0
  250  0  0   2  46  49  0
  251  0  0   5   0   0  7
  252  0  0   2  47  50  0
  253  0  9   0   0   1  0
  254  0  0   2  48  49  0
  255  0  0   5   0   0  9
  256  0  0   2  48  50  0
  257  0  5   0   0   1  0
  258  0  0   2  47  49  0
  259  0  0   5   0   0  5
  260  0  0   2  46  50  0
  261  0  3   0   0   1  0
  262  0  0   2  45  49  0
  263  0  0   5   0   0  3
  264  0  0   2  44  50  0
  265  0  6   0   0   1  0
  266  0  0   2  43  49  0
  267  0  0   5   0   0  6
  268  0  0   2  42  50  0
  269  0  5   0   0   1  0
  270  0  0   2  41  49  0
  271  0  0   5   0   0  5
  272  0  0   2  40  50  0
  273  0  4   0   0   1  0
  274  0  0   2  39  49  0
  275  0  0   5   0   0  4
  276  0  0   2  38  50  0
  277  0  3   0   0   1  0
  278  0  0   2  37  49  0
  279  0  0   5   0   0  3
  280  0  0   2  36  50  0
  281  0  2   0   0   1  0
  282  0  0   2  35  49  0
  283  0  0   5   0   0  2
  284  0  0   2  34  50  0
  285  0  9   0   0   1  0
  286  0  0   2  33  49  0
  287  0  0   5   0   0  9
  288  0  0   2  32  50  0
  289  0  1   0   0   1  0
  290  0  0   2  31  49  0
  291  0  0   5   0   0  1
  292  0  0   2  30  50  0
  293  0  2   0   0   1  0
  294  0  0   2  29  49  0
  295  0  0   5   0   0  2
  296  0  0   2  28  50  0
  297  0  3   0   0   1  0
  298  0  0   2  27  49  0
  299  0  0   5   0   0  3
  300  0  0   2  26  50  0
  301  0  4   0   0   1  0
  302  0  0   2  25  49  0
  303  0  0   5   0   0  4
  304  0  0   2  24  50  0
  305  0  5   0   0   1  0
  306  0  0   2  23  49  0
  307  0  0   5   0   0  5
  308  0  0   2  22  50  0
  309  0  6   0   0   1  0
  310  0  0   2  21  49  0
  311  0  0   5   0   0  6
  312  0  0   2  20  50  0
  313  0  3   0   0   1  0
  314  0  0   2  19  49  0
  315  0  0   5   0   0  3
  316  0  0   2  18  50  0
  317  0  5   0   0   1  0
  318  0  0   2  17  49  0
  319  0  0   5   0   0  5
  320  0  0   2  16  50  0
  321  0  9   0   0   1  0
  322  0  0   2  15  49  0
  323  0  0   5   0   0  9
  324  0  0   2  14  50  0
  325  0  7   0   0   1  0
  326  0  0   2  13  49  0
  327  0  0   5   0   0  7
  328  0  0   2  12  50  0
  329  0  2   0   0   1  0
  330  0  0   2  11  49  0
  331  0  0   5   0   0  2
  332  0  0   2  10  50  0
  333  0  8   0   0   1  0
  334  0  0   2   9  49  0
  335  0  0   5   0   0  8
  336  0  0   2   8  50  0
  337  0  4   0   0   1  0
  338  0  0   2   3  51  0
  339  0  0   5   0   0  4
  340  0  0   2   6  52  0
  341  0  2   0   0   1  0
  342  0  0   2   8  51  0
  343  0  0   5   0   0  2
  344  0  0   2   9  52  0
  345  0  6   0   0   1  0
  346  0  0   2  10  51  0
  347  0  0   5   0   0  6
  348  0  0   2  11  52  0
  349  0  8   0   0   1  0
  350  0  0   2  12  51  0
  351  0  0   5   0   0  8
  352  0  0   2  13  52  0
  353  0  5   0   0   1  0
  354  0  0   2  14  51  0
  355  0  0   5   0   0  5
  356  0  0   2  15  52  0
  357  0  7   0   0   1  0
  358  0  0   2  16  51  0
  359  0  0   5   0   0  7
  360  0  0   2  17  52  0
  361  0  7   0   0   1  0
[RF]
1       66.915 1 2 120 0 0
2       66.915 1 2 120 0 1.74533
3       66.915 1 2 120 0 5.23599
4       66.915 1 2 120 0 4.18879
5       66.915 1 2 120 0 4.88692
6       66.915 1 2 120 0 1.0472
7       66.915 1 2 120 0 3.14159
8       66.915 1 2 120 0 2.0944
9       66.915 1 2 120 0 6.28319
10      27.2331 3 4 100 0 0

# Format of trapezoid gradients:
# id amplitude rise flat fall delay
# ..      Hz/m   us   us   us    us
[TRAP]
 1         18750  20 2000  20 100
 2     -693027.2 140    0 140   0
 3     -714285.7 140    0 140   0
 4      -1169293 230    0 230   0
 5      119047.6  30 1600  30   0
 6      714285.7 140    0 140   0
 7       1427005 260 1330 260   0
 8     -680272.1 140    0 140   0
 9      680272.1 140    0 140   0
10     -695970.7 130    0 130   0
11      695970.7 130    0 130   0
12     -659340.7 130    0 130   0
13      659340.7 130    0 130   0
14     -622710.6 130    0 130   0
15      622710.6 130    0 130   0
16     -634920.6 120    0 120   0
17      634920.6 120    0 120   0
18     -595238.1 120    0 120   0
19      595238.1 120    0 120   0
20     -555555.6 120    0 120   0
21      555555.6 120    0 120   0
22     -562770.6 110    0 110   0
23      562770.6 110    0 110   0
24     -519480.5 110    0 110   0
25      519480.5 110    0 110   0
26     -523809.5 100    0 100   0
27      523809.5 100    0 100   0
28     -476190.5 100    0 100   0
29      476190.5 100    0 100   0
30     -476190.5  90    0  90   0
31      476190.5  90    0  90   0
32     -423280.4  90    0  90   0
33      423280.4  90    0  90   0
34     -416666.7  80    0  80   0
35      416666.7  80    0  80   0
36     -357142.9  80    0  80   0
37      357142.9  80    0  80   0
38     -340136.1  70    0  70   0
39      340136.1  70    0  70   0
40     -317460.3  60    0  60   0
41      317460.3  60    0  60   0
42     -238095.2  60    0  60   0
43      238095.2  60    0  60   0
44     -190476.2  50    0  50   0
45      190476.2  50    0  50   0
46     -158730.2  30    0  30   0
47      158730.2  30    0  30   0
48             0   0    0   0   0
49      -1194034 220    0 220   0
50       1432081 260 1320 260   0
51      -1165625 220    0 220   0
52       1428125 260 1320 260   0
53      -1137216 220    0 220   0
54       1424169 260 1320 260   0
55      -1108807 220    0 220   0
56       1429260 260 1310 260   0
57      -1131845 210    0 210   0
58       1425279 260 1310 260   0
59      -1102083 210    0 210   0
60       1430409 260 1300 260   0
61      -1072321 210    0 210   0
62       1426402 260 1300 260   0
63      -1094688 200    0 200   0
64       1431573 260 1290 260   0
65      -1063437 200    0 200   0
66       1427540 260 1290 260   0
67      -1032188 200    0 200   0
68       1423508 260 1290 260   0
69      -1000937 200    0 200   0
70       1428693 260 1280 260   0
71      -1020724 190    0 190   0
72       1424635 260 1280 260   0
73     -987828.9 190    0 190   0
74       1429861 260 1270 260   0
75     -954934.2 190    0 190   0
76       1425776 260 1270 260   0
77     -973263.9 180    0 180   0
78       1431044 260 1260 260   0
79     -938541.7 180    0 180   0
80       1426933 260 1260 260   0
81     -903819.4 180    0 180   0
82       1432243 260 1250 260   0
83     -920220.6 170    0 170   0
84       1428104 260 1250 260   0
85     -883455.9 170    0 170   0
86       1423965 260 1250 260   0
87     -846691.2 170    0 170   0
88       1429292 260 1240 260   0
89     -860546.9 160    0 160   0
90       1425125 260 1240 260   0
91     -821484.4 160    0 160   0
92       1430495 260 1230 260   0
93     -782421.9 160    0 160   0
94       1426300 260 1230 260   0
95     -792916.7 150    0 150   0
96       1431715 260 1220 260   0
97       -751250 150    0 150   0
98       1427492 260 1220 260   0
99     -760267.9 140    0 140   0
100       1423269 260 1220 260   0
101       -715625 140    0 140   0
102       1428699 260 1210 260   0
103     -670982.1 140    0 140   0
104       1424447 260 1210 260   0
105     -674519.2 130    0 130   0
106       1429923 260 1200 260   0
107     -626442.3 130    0 130   0
108       1425642 260 1200 260   0
109     -626562.5 120    0 120   0
110       1431164 260 1190 260   0
111     -574479.2 120    0 120   0
112       1426853 260 1190 260   0
113     -569886.4 110    0 110   0
114       1422543 260 1190 260   0
115     -513068.2 110    0 110   0
116       1428082 260 1180 260   0
117       -501875 100    0 100   0
118       1423741 260 1180 260   0
119     -488194.4  90    0  90   0
120       1429327 260 1170 260   0
121       -418750  90    0  90   0
122       1424956 260 1170 260   0
123     -392968.7  80    0  80   0
124       1430590 260 1160 260   0
125     -359821.4  70    0  70   0
126       1426188 260 1160 260   0
127       -315625  60    0  60   0
128       1431871 260 1150 260   0
129       -253750  50    0  50   0
130       1427438 260 1150 260   0
131     -160937.5  40    0  40   0
132       1423005 260 1150 260   0
133        -18750  10    0  10   0
134       1428705 260 1140 260   0
135      151562.5  40    0  40   0
136       1424241 260 1140 260   0
137        246250  50    0  50   0
138       1429991 260 1130 260   0
139        309375  60    0  60   0
140       1425495 260 1130 260   0
141      354464.3  70    0  70   0
142       1431295 260 1120 260   0
143      388281.3  80    0  80   0
144       1426766 260 1120 260   0
145      414583.3  90    0  90   0
146       1422237 260 1120 260   0
147      484027.8  90    0  90   0
148       1428057 260 1110 260   0
149        498125 100    0 100   0
150       1423495 260 1110 260   0
151      509659.1 110    0 110   0
152       1429366 260 1100 260   0
153      566477.3 110    0 110   0
154       1424770 260 1100 260   0
155      571354.2 120    0 120   0
156       1430694 260 1090 260   0
157      623437.5 120    0 120   0
158       1426065 260 1090 260   0
159      623557.7 130    0 130   0
160       1432043 260 1080 260   0
161      671634.6 130    0 130   0
162       1427379 260 1080 260   0
163      668303.6 140    0 140   0
164       1422715 260 1080 260   0
165      712946.4 140    0 140   0
166       1428712 260 1070 260   0
167      757589.3 140    0 140   0
168       1424013 260 1070 260   0
169        748750 150    0 150   0
170       1430066 260 1060 260   0
171      790416.7 150    0 150   0
172       1425331 260 1060 260   0
173      780078.1 160    0 160   0
174       1431441 260 1050 260   0
175      819140.6 160    0 160   0
176       1426670 260 1050 260   0
177      858203.1 160    0 160   0
178       1421899 260 1050 260   0
179      844485.3 170    0 170   0
180       1428029 260 1040 260   0
181        881250 170    0 170   0
182       1423221 260 1040 260   0
183      918014.7 170    0 170   0
184       1429409 260 1030 260   0
185      901736.1 180    0 180   0
186       1424564 260 1030 260   0
187      936458.3 180    0 180   0
188       1430811 260 1020 260   0
189      971180.6 180    0 180   0
190       1425928 260 1020 260   0
191      952960.5 190    0 190   0
192       1432234 260 1010 260   0
193      985855.3 190    0 190   0
194       1427313 260 1010 260   0
195       1018750 190    0 190   0
196       1422392 260 1010 260   0
197      999062.5 200    0 200   0
198       1428720 260 1000 260   0
199       1030312 200    0 200   0
200       1423760 260 1000 260   0
201       1061562 200    0 200   0
202       1430150 260  990 260   0
203       1092812 200    0 200   0
204       1425150 260  990 260   0
205       1070536 210    0 210   0
206       1431603 260  980 260   0
207      -1409266 260  110 260   0
208      -1428571 260   90 260   0
209      -1428571 260   90 260   0
210      476190.5  90 2100  90   0
211       1428571 260   90 260   0
212       1428571 260 1490 260   0
213      -1414566 260   80 260   0
214       1414566 260   80 260   0
215      -1399711 260   70 260   0
216       1399711 260   70 260   0
217      -1428571 260   50 260   0
218       1428571 260   50 260   0
219      -1412698 260   40 260   0
220       1412698 260   40 260   0
221      -1395731 260   30 260   0
222       1395731 260   30 260   0
223      -1428571 260   10 260   0
224       1428571 260   10 260   0
225      -1410256 260    0 260   0
226       1410256 260    0 260   0
227      -1336996 260    0 260   0
228       1336996 260    0 260   0
229      -1314286 250    0 250   0
230       1314286 250    0 250   0
231      -1289683 240    0 240   0
232       1289683 240    0 240   0
233      -1262940 230    0 230   0
234       1262940 230    0 230   0
235      -1180124 230    0 230   0
236       1180124 230    0 230   0
237      -1147186 220    0 220   0
238       1147186 220    0 220   0
239      -1111111 210    0 210   0
240       1111111 210    0 210   0
241      -1071429 200    0 200   0
242       1071429 200    0 200   0
243      -1027569 190    0 190   0
244       1027569 190    0 190   0
245       -978836 180    0 180   0
246        978836 180    0 180   0
247     -924369.7 170    0 170   0
248      924369.7 170    0 170   0
249     -863095.2 160    0 160   0
250      863095.2 160    0 160   0
251     -793650.8 150    0 150   0
252      793650.8 150    0 150   0
253     -714285.7 140    0 140   0
254      714285.7 140    0 140   0
255     -622710.6 130    0 130   0
256      622710.6 130    0 130   0
257     -562770.6 110    0 110   0
258      562770.6 110    0 110   0
259     -476190.5  90    0  90   0
260      476190.5  90    0  90   0
261     -340136.1  70    0  70   0
262      340136.1  70    0  70   0
263     -158730.2  30    0  30   0
264      158730.2  30    0  30   0
265      238095.2  60    0  60   0
266     -238095.2  60    0  60   0
267      416666.7  80    0  80   0
268     -416666.7  80    0  80   0
269      523809.5 100    0 100   0
270     -523809.5 100    0 100   0
271      595238.1 120    0 120   0
272     -595238.1 120    0 120   0
273      695970.7 130    0 130   0
274     -695970.7 130    0 130   0
275      730158.7 150    0 150   0
276     -730158.7 150    0 150   0
277      803571.4 160    0 160   0
278     -803571.4 160    0 160   0
279      868347.3 170    0 170   0
280     -868347.3 170    0 170   0
281      925925.9 180    0 180   0
282     -925925.9 180    0 180   0
283      977443.6 190    0 190   0
284     -977443.6 190    0 190   0
285       1023810 200    0 200   0
286      -1023810 200    0 200   0
287       1065760 210    0 210   0
288      -1065760 210    0 210   0
289       1156463 210    0 210   0
290      -1156463 210    0 210   0
291       1190476 220    0 220   0
292      -1190476 220    0 220   0
293       1221532 230    0 230   0
294      -1221532 230    0 230   0
295       1250000 240    0 240   0
296      -1250000 240    0 240   0
297       1276190 250    0 250   0
298      -1276190 250    0 250   0
299       1352381 250    0 250   0
300      -1352381 250    0 250   0
301       1373626 260    0 260   0
302      -1373626 260    0 260   0
303       1393298 260   10 260   0
304      -1393298 260   10 260   0
305       1411565 260   20 260   0
306      -1411565 260   20 260   0
307       1428571 260   30 260   0
308      -1428571 260   30 260   0
309       1397849 260   50 260   0
310      -1397849 260   50 260   0
311       1413690 260   60 260   0
312      -1413690 260   60 260   0
313       1428571 260   70 260   0
314      -1428571 260   70 260   0
315      -1414966 260   90 260   0
316      -1410714 260   90 260   0
317       1414966 260   90 260   0
318       1425000 260 1490 260   0
319      -1400560 260   80 260   0
320       1400560 260   80 260   0
321      -1428571 260   60 260   0
322       1428571 260   60 260   0
323      -1413210 260   50 260   0
324       1413210 260   50 260   0
325      -1396825 260   40 260   0
326       1396825 260   40 260   0
327      -1428571 260   20 260   0
328       1428571 260   20 260   0
329      -1410935 260   10 260   0
330       1410935 260   10 260   0
331      -1391941 260    0 260   0
332       1391941 260    0 260   0
333      -1371429 250    0 250   0
334       1371429 250    0 250   0
335      -1295238 250    0 250   0
336       1295238 250    0 250   0
337      -1269841 240    0 240   0
338       1269841 240    0 240   0
339      -1242236 230    0 230   0
340       1242236 230    0 230   0
341      -1159420 230    0 230   0
342       1159420 230    0 230   0
343      -1125541 220    0 220   0
344       1125541 220    0 220   0
345      -1088435 210    0 210   0
346       1088435 210    0 210   0
347      -1047619 200    0 200   0
348       1047619 200    0 200   0
349      -1002506 190    0 190   0
350       1002506 190    0 190   0
351       -952381 180    0 180   0
352        952381 180    0 180   0
353     -896358.5 170    0 170   0
354      896358.5 170    0 170   0
355     -833333.3 160    0 160   0
356      833333.3 160    0 160   0
357     -761904.8 150    0 150   0
358      761904.8 150    0 150   0
359     -680272.1 140    0 140   0
360      680272.1 140    0 140   0
361     -634920.6 120    0 120   0
362      634920.6 120    0 120   0
363     -519480.5 110    0 110   0
364      519480.5 110    0 110   0
365     -423280.4  90    0  90   0
366      423280.4  90    0  90   0
367     -317460.3  60    0  60   0
368      317460.3  60    0  60   0
369  1.932629e-09  10    0  10   0
370 -1.932629e-09  10    0  10   0
371      317460.3  60    0  60   0
372     -317460.3  60    0  60   0
373      423280.4  90    0  90   0
374     -423280.4  90    0  90   0
375      519480.5 110    0 110   0
376     -519480.5 110    0 110   0
377      634920.6 120    0 120   0
378     -634920.6 120    0 120   0
379      680272.1 140    0 140   0
380     -680272.1 140    0 140   0
381      761904.8 150    0 150   0
382     -761904.8 150    0 150   0
383      833333.3 160    0 160   0
384     -833333.3 160    0 160   0
385      896358.5 170    0 170   0
386     -896358.5 170    0 170   0
387        952381 180    0 180   0
388       -952381 180    0 180   0
389       1002506 190    0 190   0
390      -1002506 190    0 190   0
391       1047619 200    0 200   0
392      -1047619 200    0 200   0
393       1088435 210    0 210   0
394      -1088435 210    0 210   0
395       1125541 220    0 220   0
396      -1125541 220    0 220   0
397       1159420 230    0 230   0
398      -1159420 230    0 230   0
399       1242236 230    0 230   0
400      -1242236 230    0 230   0
401       1269841 240    0 240   0
402      -1269841 240    0 240   0
403       1391941 260    0 260   0
404      -1391941 260    0 260   0
405       1396825 260   40 260   0
406      -1396825 260   40 260   0
407       1428571 260   60 260   0
408      -1428571 260   60 260   0
409       1400560 260   80 260   0
410      -1400560 260   80 260   0
411      -1401361 260   90 260   0
412      -1392857 260   90 260   0
413       1401361 260   90 260   0
414       1429598 260 1480 260   0
415      -1428571 260   70 260   0
416       1428571 260   70 260   0
417      -1397849 260   50 260   0
418       1397849 260   50 260   0
419      -1276190 250    0 250   0
420       1276190 250    0 250   0
421      -1250000 240    0 240   0
422       1250000 240    0 240   0
423      -1221532 230    0 230   0
424       1221532 230    0 230   0
425      -1190476 220    0 220   0
426       1190476 220    0 220   0
427      -1156463 210    0 210   0
428       1156463 210    0 210   0
429      -1065760 210    0 210   0
430       1065760 210    0 210   0
431      -1023810 200    0 200   0
432       1023810 200    0 200   0
433     -977443.6 190    0 190   0
434      977443.6 190    0 190   0
435     -925925.9 180    0 180   0
436      925925.9 180    0 180   0
437     -868347.3 170    0 170   0
438      868347.3 170    0 170   0
439     -803571.4 160    0 160   0
440      803571.4 160    0 160   0
441     -730158.7 150    0 150   0
442      730158.7 150    0 150   0
443     -695970.7 130    0 130   0
444      695970.7 130    0 130   0
445     -595238.1 120    0 120   0
446      595238.1 120    0 120   0
447     -523809.5 100    0 100   0
448      523809.5 100    0 100   0
449     -416666.7  80    0  80   0
450      416666.7  80    0  80   0
451     -238095.2  60    0  60   0
452      238095.2  60    0  60   0
453      158730.2  30    0  30   0
454     -158730.2  30    0  30   0
455      340136.1  70    0  70   0
456     -340136.1  70    0  70   0
457      476190.5  90    0  90   0
458     -476190.5  90    0  90   0
459      562770.6 110    0 110   0
460     -562770.6 110    0 110   0
461      622710.6 130    0 130   0
462     -622710.6 130    0 130   0
463      793650.8 150    0 150   0
464     -793650.8 150    0 150   0
465      863095.2 160    0 160   0
466     -863095.2 160    0 160   0
467      924369.7 170    0 170   0
468     -924369.7 170    0 170   0
469        978836 180    0 180   0
470       -978836 180    0 180   0
471       1027569 190    0 190   0
472      -1027569 190    0 190   0
473       1071429 200    0 200   0
474      -1071429 200    0 200   0
475       1111111 210    0 210   0
476      -1111111 210    0 210   0
477       1147186 220    0 220   0
478      -1147186 220    0 220   0
479       1180124 230    0 230   0
480      -1180124 230    0 230   0
481       1262940 230    0 230   0
482      -1262940 230    0 230   0
483       1289683 240    0 240   0
484      -1289683 240    0 240   0
485       1336996 260    0 260   0
486      -1336996 260    0 260   0
487       1395731 260   30 260   0
488      -1395731 260   30 260   0
489       1428571 260   50 260   0
490      -1428571 260   50 260   0
491       1399711 260   70 260   0
492      -1399711 260   70 260   0
493      -1428571 260   80 260   0
494      -1415441 260   80 260   0
495       1428571 260   80 260   0
496       1426006 260 1480 260   0
497      -1414141 260   70 260   0
498       1414141 260   70 260   0
499      -1398810 260   60 260   0
500       1398810 260   60 260   0
501      -1428571 260   40 260   0
502       1428571 260   40 260   0
503      -1412151 260   30 260   0
504       1412151 260   30 260   0
505      -1394558 260   20 260   0
506       1394558 260   20 260   0
507      -1428571 260    0 260   0
508       1428571 260    0 260   0
509      -1355311 260    0 260   0
510       1355311 260    0 260   0
511      -1333333 250    0 250   0
512       1333333 250    0 250   0
513      -1309524 240    0 240   0
514       1309524 240    0 240   0
515      -1230159 240    0 240   0
516       1230159 240    0 240   0
517      -1200828 230    0 230   0
518       1200828 230    0 230   0
519      -1168831 220    0 220   0
520       1168831 220    0 220   0
521      -1133787 210    0 210   0
522       1133787 210    0 210   0
523      -1095238 200    0 200   0
524       1095238 200    0 200   0
525      -1000000 200    0 200   0
526       1000000 200    0 200   0
527       -952381 190    0 190   0
528        952381 190    0 190   0
529     -899470.9 180    0 180   0
530      899470.9 180    0 180   0
531     -840336.1 170    0 170   0
532      840336.1 170    0 170   0
533     -825396.8 150    0 150   0
534      825396.8 150    0 150   0
535     -748299.3 140    0 140   0
536      748299.3 140    0 140   0
537     -659340.7 130    0 130   0
538      659340.7 130    0 130   0
539     -555555.6 120    0 120   0
540      555555.6 120    0 120   0
541     -476190.5 100    0 100   0
542      476190.5 100    0 100   0
543     -357142.9  80    0  80   0
544      357142.9  80    0  80   0
545     -190476.2  50    0  50   0
546      190476.2  50    0  50   0
547      190476.2  50    0  50   0
548     -190476.2  50    0  50   0
549      357142.9  80    0  80   0
550     -357142.9  80    0  80   0
551      476190.5 100    0 100   0
552     -476190.5 100    0 100   0
553      555555.6 120    0 120   0
554     -555555.6 120    0 120   0
555      659340.7 130    0 130   0
556     -659340.7 130    0 130   0
557      748299.3 140    0 140   0
558     -748299.3 140    0 140   0
559      825396.8 150    0 150   0
560     -825396.8 150    0 150   0
561      840336.1 170    0 170   0
