# Pulseq sequence format
# Created by JEMRIS 2.8.4

[VERSION]
major 1
minor 2
revision 1

[DEFINITIONS]
Name spiralout_slc_sel_dummys
Num_Blocks 553
FOV 220 220 1
Slice_Thickness 1

# Format of blocks:
# #  D RF  GX  GY  GZ ADC
[BLOCKS]
  1  0  1   0   0   1  0
  2  0  0   0   0   2  0
  3  1  0   0   0   0  0
  4  2  0   3   4   0  0
  5  0  0   5   6   0  0
  6  0  0   0   0   7  0
  7  3  0   0   0   0  0
  8  0  1   0   0   1  0
  9  0  0   0   0   2  0
 10  1  0   0   0   0  0
 11  2  0   3   4   0  0
 12  0  0   5   6   0  0
 13  0  0   0   0   7  0
 14  3  0   0   0   0  0
 15  0  1   0   0   1  0
 16  0  0   0   0   2  0
 17  1  0   0   0   0  0
 18  2  0   3   4   0  0
 19  0  0   5   6   0  0
 20  0  0   0   0   7  0
 21  3  0   0   0   0  0
 22  0  1   0   0   1  0
 23  0  0   0   0   2  0
 24  1  0   0   0   0  0
 25  2  0   3   4   0  0
 26  0  0   5   6   0  0
 27  0  0   0   0   7  0
 28  3  0   0   0   0  0
 29  0  1   0   0   1  0
 30  0  0   0   0   2  0
 31  1  0   0   0   0  0
 32  2  0   3   4   0  0
 33  0  0   5   6   0  0
 34  0  0   0   0   7  0
 35  3  0   0   0   0  0
 36  0  1   0   0   1  0
 37  0  0   0   0   2  0
 38  1  0   0   0   0  0
 39  2  0   3   4   0  0
 40  0  0   5   6   0  0
 41  0  0   0   0   7  0
 42  3  0   0   0   0  0
 43  0  1   0   0   1  0
 44  0  0   0   0   2  0
 45  1  0   0   0   0  0
 46  2  0   3   4   0  0
 47  0  0   5   6   0  0
 48  0  0   0   0   7  0
 49  3  0   0   0   0  0
 50  0  1   0   0   1  0
 51  0  0   0   0   2  0
 52  1  0   0   0   0  0
 53  2  0   3   4   0  0
 54  0  0   5   6   0  0
 55  0  0   0   0   7  0
 56  3  0   0   0   0  0
 57  0  1   0   0   1  0
 58  0  0   0   0   2  0
 59  1  0   0   0   0  0
 60  2  0   3   4   0  0
 61  0  0   5   6   0  0
 62  0  0   0   0   7  0
 63  3  0   0   0   0  0
 64  0  1   0   0   1  0
 65  0  0   0   0   2  0
 66  1  0   0   0   0  0
 67  2  0   3   4   0  0
 68  0  0   5   6   0  0
 69  0  0   0   0   7  0
 70  3  0   0   0   0  0
 71  0  1   0   0   1  0
 72  0  0   0   0   2  0
 73  1  0   0   0   0  0
 74  2  0   3   4   0  0
 75  0  0   5   6   0  0
 76  0  0   0   0   7  0
 77  3  0   0   0   0  0
 78  0  1   0   0   1  0
 79  0  0   0   0   2  0
 80  1  0   0   0   0  0
 81  2  0   3   4   0  0
 82  0  0   5   6   0  0
 83  0  0   0   0   7  0
 84  3  0   0   0   0  0
 85  0  1   0   0   1  0
 86  0  0   0   0   2  0
 87  1  0   0   0   0  0
 88  2  0   3   4   0  0
 89  0  0   5   6   0  0
 90  0  0   0   0   7  0
 91  3  0   0   0   0  0
 92  0  1   0   0   1  0
 93  0  0   0   0   2  0
 94  1  0   0   0   0  0
 95  2  0   3   4   0  0
 96  0  0   5   6   0  0
 97  0  0   0   0   7  0
 98  3  0   0   0   0  0
 99  0  1   0   0   1  0
100  0  0   0   0   2  0
101  1  0   0   0   0  0
102  2  0   3   4   0  0
103  0  0   5   6   0  0
104  0  0   0   0   7  0
105  3  0   0   0   0  0
106  0  1   0   0   1  0
107  0  0   0   0   2  0
108  1  0   0   0   0  0
109  2  0   3   4   0  0
110  0  0   5   6   0  0
111  0  0   0   0   7  0
112  3  0   0   0   0  0
113  0  1   0   0   1  0
114  0  0   0   0   2  0
115  1  0   0   0   0  0
116  2  0   3   4   0  0
117  0  0   5   6   0  0
118  0  0   0   0   7  0
119  3  0   0   0   0  0
120  0  1   0   0   1  0
121  0  0   0   0   2  0
122  1  0   0   0   0  0
123  2  0   3   4   0  0
124  0  0   5   6   0  0
125  0  0   0   0   7  0
126  3  0   0   0   0  0
127  0  1   0   0   1  0
128  0  0   0   0   2  0
129  1  0   0   0   0  0
130  2  0   3   4   0  0
131  0  0   5   6   0  0
132  0  0   0   0   7  0
133  3  0   0   0   0  0
134  0  1   0   0   1  0
135  0  0   0   0   2  0
136  1  0   0   0   0  0
137  2  0   3   4   0  0
138  0  0   5   6   0  0
139  0  0   0   0   7  0
140  3  0   0   0   0  0
141  0  1   0   0   1  0
142  0  0   0   0   2  0
143  1  0   0   0   0  0
144  2  0   3   4   0  0
145  0  0   5   6   0  0
146  0  0   0   0   7  0
147  3  0   0   0   0  0
148  0  1   0   0   1  0
149  0  0   0   0   2  0
150  1  0   0   0   0  0
151  2  0   3   4   0  0
152  0  0   5   6   0  0
153  0  0   0   0   7  0
154  3  0   0   0   0  0
155  0  1   0   0   1  0
156  0  0   0   0   2  0
157  1  0   0   0   0  0
158  2  0   3   4   0  0
159  0  0   5   6   0  0
160  0  0   0   0   7  0
161  3  0   0   0   0  0
162  0  1   0   0   1  0
163  0  0   0   0   2  0
164  1  0   0   0   0  0
165  2  0   3   4   0  0
166  0  0   5   6   0  0
167  0  0   0   0   7  0
168  3  0   0   0   0  0
169  0  1   0   0   1  0
170  0  0   0   0   2  0
171  1  0   0   0   0  0
172  2  0   3   4   0  0
173  0  0   5   6   0  0
174  0  0   0   0   7  0
175  3  0   0   0   0  0
176  0  1   0   0   1  0
177  0  0   0   0   2  0
178  1  0   0   0   0  0
179  2  0   3   4   0  0
180  0  0   5   6   0  0
181  0  0   0   0   7  0
182  3  0   0   0   0  0
183  0  1   0   0   1  0
184  0  0   0   0   2  0
185  1  0   0   0   0  0
186  2  0   3   4   0  0
187  0  0   5   6   0  0
188  0  0   0   0   7  0
189  3  0   0   0   0  0
190  0  1   0   0   1  0
191  0  0   0   0   2  0
192  1  0   0   0   0  0
193  2  0   3   4   0  0
194  0  0   5   6   0  0
195  0  0   0   0   7  0
196  3  0   0   0   0  0
197  0  1   0   0   1  0
198  0  0   0   0   2  0
199  1  0   0   0   0  0
200  2  0   3   4   0  0
201  0  0   5   6   0  0
202  0  0   0   0   7  0
203  3  0   0   0   0  0
204  0  1   0   0   1  0
205  0  0   0   0   2  0
206  1  0   0   0   0  0
207  2  0   3   4   0  0
208  0  0   5   6   0  0
209  0  0   0   0   7  0
210  3  0   0   0   0  0
211  0  1   0   0   1  0
212  0  0   0   0   2  0
213  1  0   0   0   0  0
214  2  0   3   4   0  0
215  0  0   5   6   0  0
216  0  0   0   0   7  0
217  3  0   0   0   0  0
218  0  1   0   0   1  0
219  0  0   0   0   2  0
220  1  0   0   0   0  0
221  2  0   3   4   0  0
222  0  0   5   6   0  0
223  0  0   0   0   7  0
224  3  0   0   0   0  0
225  0  1   0   0   1  0
226  0  0   0   0   2  0
227  1  0   0   0   0  0
228  2  0   3   4   0  0
229  0  0   5   6   0  0
230  0  0   0   0   7  0
231  3  0   0   0   0  0
232  0  1   0   0   1  0
233  0  0   0   0   2  0
234  1  0   0   0   0  0
235  2  0   3   4   0  0
236  0  0   5   6   0  0
237  0  0   0   0   7  0
238  3  0   0   0   0  0
239  0  1   0   0   1  0
240  0  0   0   0   2  0
241  1  0   0   0   0  0
242  2  0   3   4   0  0
243  0  0   5   6   0  0
244  0  0   0   0   7  0
245  3  0   0   0   0  0
246  0  1   0   0   1  0
247  0  0   0   0   2  0
248  1  0   0   0   0  0
249  2  0   3   4   0  0
250  0  0   5   6   0  0
251  0  0   0   0   7  0
252  3  0   0   0   0  0
253  0  1   0   0   1  0
254  0  0   0   0   2  0
255  1  0   0   0   0  0
256  2  0   3   4   0  0
257  0  0   5   6   0  0
258  0  0   0   0   7  0
259  3  0   0   0   0  0
260  0  1   0   0   1  0
261  0  0   0   0   2  0
262  1  0   0   0   0  0
263  2  0   3   4   0  0
264  0  0   5   6   0  0
265  0  0   0   0   7  0
266  3  0   0   0   0  0
267  0  1   0   0   1  0
268  0  0   0   0   2  0
269  1  0   0   0   0  0
270  2  0   3   4   0  0
271  0  0   5   6   0  0
272  0  0   0   0   7  0
273  3  0   0   0   0  0
274  0  1   0   0   1  0
275  0  0   0   0   2  0
276  1  0   0   0   0  0
277  2  0   3   4   0  0
278  0  0   5   6   0  0
279  0  0   0   0   7  0
280  3  0   0   0   0  0
281  0  1   0   0   1  0
282  0  0   0   0   2  0
283  1  0   0   0   0  0
284  2  0   3   4   0  0
285  0  0   5   6   0  0
286  0  0   0   0   7  0
287  3  0   0   0   0  0
288  0  1   0   0   1  0
289  0  0   0   0   2  0
290  1  0   0   0   0  0
291  2  0   3   4   0  0
292  0  0   5   6   0  0
293  0  0   0   0   7  0
294  3  0   0   0   0  0
295  0  1   0   0   1  0
296  0  0   0   0   2  0
297  1  0   0   0   0  0
298  2  0   3   4   0  0
299  0  0   5   6   0  0
300  0  0   0   0   7  0
301  3  0   0   0   0  0
302  0  1   0   0   1  0
303  0  0   0   0   2  0
304  1  0   0   0   0  0
305  2  0   3   4   0  0
306  0  0   5   6   0  0
307  0  0   0   0   7  0
308  3  0   0   0   0  0
309  0  1   0   0   1  0
310  0  0   0   0   2  0
311  1  0   0   0   0  0
312  2  0   3   4   0  0
313  0  0   5   6   0  0
314  0  0   0   0   7  0
315  3  0   0   0   0  0
316  0  1   0   0   1  0
317  0  0   0   0   2  0
318  1  0   0   0   0  0
319  2  0   3   4   0  0
320  0  0   5   6   0  0
321  0  0   0   0   7  0
322  3  0   0   0   0  0
323  0  1   0   0   1  0
324  0  0   0   0   2  0
325  1  0   0   0   0  0
326  2  0   3   4   0  0
327  0  0   5   6   0  0
328  0  0   0   0   7  0
329  3  0   0   0   0  0
330  0  1   0   0   1  0
331  0  0   0   0   2  0
332  1  0   0   0   0  0
333  2  0   3   4   0  0
334  0  0   5   6   0  0
335  0  0   0   0   7  0
336  3  0   0   0   0  0
337  0  1   0   0   1  0
338  0  0   0   0   2  0
339  1  0   0   0   0  0
340  2  0   3   4   0  0
341  0  0   5   6   0  0
342  0  0   0   0   7  0
343  3  0   0   0   0  0
344  0  1   0   0   1  0
345  0  0   0   0   2  0
346  1  0   0   0   0  0
347  2  0   3   4   0  0
348  0  0   5   6   0  0
349  0  0   0   0   7  0
350  3  0   0   0   0  0
351  0  1   0   0   1  0
352  0  0   0   0   2  0
353  1  0   0   0   0  0
354  2  0   3   4   0  0
355  0  0   5   6   0  0
356  0  0   0   0   7  0
357  3  0   0   0   0  0
358  0  1   0   0   1  0
359  0  0   0   0   2  0
360  1  0   0   0   0  0
361  2  0   3   4   0  0
362  0  0   5   6   0  0
363  0  0   0   0   7  0
364  3  0   0   0   0  0
365  0  1   0   0   1  0
366  0  0   0   0   2  0
367  1  0   0   0   0  0
368  2  0   3   4   0  0
369  0  0   5   6   0  0
370  0  0   0   0   7  0
371  3  0   0   0   0  0
372  0  1   0   0   1  0
373  0  0   0   0   2  0
374  1  0   0   0   0  0
375  2  0   3   4   0  0
376  0  0   5   6   0  0
377  0  0   0   0   7  0
378  3  0   0   0   0  0
379  0  1   0   0   1  0
380  0  0   0   0   2  0
381  1  0   0   0   0  0
382  2  0   3   4   0  0
383  0  0   5   6   0  0
384  0  0   0   0   7  0
385  3  0   0   0   0  0
386  0  1   0   0   1  0
387  0  0   0   0   2  0
388  1  0   0   0   0  0
389  2  0   3   4   0  0
390  0  0   5   6   0  0
[RF]
1      55.4182 1 2 400 0 0

# Format of arbitrary gradients:
# id amplitude shape_id delay
# ..      Hz/m     ....    us
[GRADIENTS]
3 -1.53718e+06 3   0
4  1.55918e+06 4   0
8  1.56105e+06 5   0
9 -1.53296e+06 6   0
10 3.54132e-303 7   0
13  1.56833e+06 8   0
14 -1.54045e+06 9   0
17   1.5758e+06 10   0
18 -1.54788e+06 11   0
21  1.57835e+06 12   0
22 -1.55539e+06 13   0
25 -1.53491e+06 14   0
26 -1.56293e+06 15   0
29 -1.54254e+06 16   0
30 -1.57042e+06 17   0
33 -1.54987e+06 18   0
34 -1.57763e+06 19   0
37 -1.55732e+06 20   0
38 -1.56354e+06 21   0
41 -1.56478e+06 22   0
42  1.53666e+06 23   0
45 -1.57206e+06 24   0
46  1.54424e+06 25   0
49 -1.57952e+06 26   0
50  1.55171e+06 27   0
53 -1.53718e+06 28   0
54  1.55918e+06 29   0
55  1.53861e+06 30   0
56  1.56649e+06 31   0
59  1.54618e+06 32   0
60  1.57397e+06 33   0
63  1.55375e+06 34   0
64  1.58124e+06 35   0

# Format of trapezoid gradients:
# id amplitude rise flat fall delay
# ..      Hz/m   us   us   us    us
[TRAP]
 1       2000000 400 2500 400   0
 2      -2056738 410 1000 410   0
 5       1093692 220    0 220   0
 6      -1459636 300    0 300   0
 7       2061856 410  560 410   0
11      -1485945 310    0 310   0
12     -967609.9 200    0 200   0
15      -1561034 320    0 320   0
16      211384.6  50    0  50   0
19      -1506817 300    0 300   0
20       1013490 210    0 210   0
23      -1255372 260    0 260   0
24       1351057 280    0 280   0
27     -848891.5 170    0 170   0
28       1543058 310    0 310   0
31      522720.9 120    0 120   0
32       1549030 320    0 320   0
35       1125733 230    0 230   0
36       1424406 300    0 300   0
39       1414970 290    0 290   0
40       1187775 240    0 240   0
43       1533788 320    0 320   0
44      668000.1 140    0 140   0
47       1520054 320    0 320   0
48     -713728.4 160    0 160   0
51       1372126 290    0 290   0
52      -1208670 250    0 250   0
57      417038.5 100    0 100   0
58      -1555934 320    0 320   0
61     -865344.3 190    0 190   0
62      -1521987 310    0 310   0
65      -1267058 270    0 270   0
66      -1348709 270    0 270   0

# Format of ADC events:
# id num dwell delay freq phase
# ..  ..    ns    us   Hz   rad
[ADC]
 1 4940   2000   0 0 0

# Format of delays:
# id delay (us)
[DELAYS]
1 1530
2 9880
3 11470
4 11450
5 11430
6 11510
7 11490
8 11530

# Sequence Shapes

[SHAPES]

shape_id 1
num_samples 2500
5.02854e-08
2.22547e-06
2.22547e-06
8
6.28698e-06
6.28698e-06
8
1.0294e-05
1.0294e-05
8
1.41461e-05
1.41461e-05
8
1.77417e-05
1.77417e-05
8
2.09789e-05
2.09789e-05
8
2.37565e-05
2.37565e-05
8
2.59753e-05
2.59753e-05
8
2.75388e-05
2.75388e-05
8
2.83547e-05
2.83547e-05
8
2.83358e-05
2.83358e-05
8
2.74008e-05
2.74008e-05
8
2.54758e-05
2.54758e-05
8
2.24949e-05
2.24949e-05
8
1.84013e-05
1.84013e-05
8
1.31484e-05
1.31484e-05
8
6.70019e-06
6.70019e-06
8
-9.67625e-07
-9.67625e-07
8
-9.86705e-06
-9.86705e-06
8
-1.99972e-05
-1.99972e-05
8
-3.13437e-05
-3.13437e-05
8
-4.38784e-05
-4.38784e-05
8
-5.75588e-05
-5.75588e-05
8
-7.23281e-05
-7.23281e-05
8
-8.81151e-05
-8.81151e-05
7
7.79408e-06
0.000104834
0.000104834
8
0.000122383
0.000122383
8
0.00014065
0.00014065
8
0.000159504
0.000159504
8
0.000178805
0.000178805
8
0.000198397
0.000198397
8
0.000218113
0.000218113
8
0.000237775
0.000237775
8
0.000257194
0.000257194
8
0.000276171
0.000276171
8
0.0002945
0.0002945
8
0.000311966
0.000311966
8
0.000328349
0.000328349
8
0.000343425
0.000343425
8
0.000356967
0.000356967
8
0.000368743
0.000368743
8
0.000378526
0.000378526
8
0.000386086
0.000386086
8
0.0003912
0.0003912
8
0.000393645
0.000393645
8
0.00039321
0.00039321
8
0.000389688
0.000389688
8
0.000382883
0.000382883
8
0.000372611
0.000372611
8
0.000358699
0.000358699
8
0.000340991
0.000340991
8
0.000319345
0.000319345
8
0.000293639
0.000293639
8
0.000263766
0.000263766
8
0.000229643
0.000229643
8
0.000191206
0.000191206
8
0.000148414
0.000148414
8
0.00010125
0.00010125
8
4.97204e-05
4.97204e-05
8
-6.14373e-06
-6.14373e-06
8
-6.62852e-05
-6.62852e-05
8
-0.000130621
-0.000130621
8
-0.000199042
-0.000199042
8
-0.000271413
-0.000271413
8
-0.000347572
-0.000347572
8
-0.000427332
-0.000427332
8
-0.000510478
-0.000510478
8
-0.000596773
-0.000596773
8
-0.000685952
-0.000685952
8
-0.000777728
-0.000777728
8
-0.000871792
-0.000871792
8
-0.000967812
-0.000967812
8
-0.00106544
-0.00106544
8
-0.00116429
-0.00116429
8
-0.001264
-0.001264
7
4.75283e-05
0.00136414
0.00136414
8
0.00146431
0.00146431
8
0.00156407
0.00156407
8
0.00166298
0.00166298
8
0.00176061
0.00176061
8
0.00185649
0.00185649
8
0.00195016
0.00195016
8
0.00204118
0.00204118
8
0.00212908
0.00212908
8
0.00221342
0.00221342
8
0.00229375
0.00229375
8
0.00236963
0.00236963
8
0.00244063
0.00244063
8
0.00250634
0.00250634
8
0.00256637
0.00256637
8
0.00262034
0.00262034
8
0.00266788
0.00266788
8
0.00270866
0.00270866
8
0.00274237
0.00274237
8
0.00276872
0.00276872
8
0.00278745
0.00278745
8
0.00279833
0.00279833
8
0.00280118
0.00280118
8
0.00279581
0.00279581
8
0.00278211
0.00278211
8
0.00275997
0.00275997
8
0.00272933
0.00272933
8
0.00269018
0.00269018
8
0.00264251
0.00264251
8
0.0025864
0.0025864
8
0.00252191
0.00252191
8
0.00244917
0.00244917
8
0.00236835
0.00236835
8
0.00227965
0.00227965
8
0.00218329
0.00218329
8
0.00207955
0.00207955
8
0.00196873
0.00196873
8
0.00185117
0.00185117
8
0.00172722
0.00172722
8
0.0015973
0.0015973
8
0.00146181
0.00146181
8
0.00132121
0.00132121
8
0.00117598
0.00117598
8
0.00102662
0.00102662
8
0.000873624
0.000873624
8
0.000717542
0.000717542
8
0.000558915
0.000558915
8
0.000398304
0.000398304
8
0.000236278
0.000236278
8
7.34103e-05
7.34103e-05
8
-8.97184e-05
-8.97184e-05
8
-0.000252528
-0.000252528
8
-0.000414439
-0.000414439
8
-0.000574877
-0.000574877
8
-0.000733274
-0.000733274
8
-0.000889072
-0.000889072
8
-0.00104172
-0.00104172
8
-0.0011907
-0.0011907
8
-0.00133549
-0.00133549
8
-0.0014756
-0.0014756
8
-0.00161055
-0.00161055
8
-0.00173989
-0.00173989
8
-0.00186322
-0.00186322
8
-0.00198012
-0.00198012
8
-0.00209025
-0.00209025
8
-0.00219327
-0.00219327
8
-0.00228887
-0.00228887
8
-0.00237679
-0.00237679
8
-0.00245681
-0.00245681
8
-0.00252873
-0.00252873
8
-0.00259239
-0.00259239
8
-0.00264766
-0.00264766
8
-0.00269448
-0.00269448
8
-0.00273278
-0.00273278
8
-0.00276256
-0.00276256
8
-0.00278386
-0.00278386
8
-0.00279672
-0.00279672
8
-0.00280126
-0.00280126
8
-0.0027976
-0.0027976
8
-0.00278592
-0.00278592
8
-0.00276642
-0.00276642
8
-0.00273932
-0.00273932
8
-0.00270489
-0.00270489
8
-0.00266342
-0.00266342
8
-0.00261522
-0.00261522
8
-0.00256064
-0.00256064
8
-0.00250002
-0.00250002
8
-0.00243376
-0.00243376
8
-0.00236225
-0.00236225
8
-0.00228591
-0.00228591
8
-0.00220516
-0.00220516
8
-0.00212045
-0.00212045
8
-0.00203221
-0.00203221
8
-0.00194091
-0.00194091
8
-0.00184699
-0.00184699
8
-0.00175092
-0.00175092
8
-0.00165314
-0.00165314
8
-0.00155412
-0.00155412
8
-0.0014543
-0.0014543
8
-0.00135412
-0.00135412
7
-4.76013e-05
0.001254
0.001254
8
0.00115436
0.00115436
8
0.00105561
0.00105561
8
0.000958132
0.000958132
8
0.000862292
0.000862292
8
0.000768442
0.000768442
8
0.000676912
0.000676912
8
0.000588009
0.000588009
8
0.000502018
0.000502018
8
0.0004192
0.0004192
8
0.000339791
0.000339791
8
0.000264003
0.000264003
8
0.00019202
0.00019202
8
0.000124002
0.000124002
8
6.00807e-05
6.00807e-05
8
3.6369e-07
3.6369e-07
8
-5.50692e-05
-5.50692e-05
8
-0.000106163
-0.000106163
8
-0.00015289
-0.00015289
8
-0.000195245
-0.000195245
8
-0.000233249
-0.000233249
8
-0.000266943
-0.000266943
8
-0.000296395
-0.000296395
8
-0.000321691
-0.000321691
8
-0.000342937
-0.000342937
8
-0.000360258
-0.000360258
8
-0.000373799
-0.000373799
8
-0.000383717
-0.000383717
8
-0.000390185
-0.000390185
8
-0.000393389
-0.000393389
8
-0.000393527
-0.000393527
8
-0.000390805
-0.000390805
8
-0.000385437
-0.000385437
8
-0.000377644
-0.000377644
8
-0.000367651
-0.000367651
8
-0.000355688
-0.000355688
8
-0.000341983
-0.000341983
8
-0.000326766
-0.000326766
8
-0.000310264
-0.000310264
8
-0.000292702
-0.000292702
8
-0.000274299
-0.000274299
8
-0.000255268
-0.000255268
8
-0.000235816
-0.000235816
8
-0.000216141
-0.000216141
8
-0.000196429
-0.000196429
8
-0.000176859
-0.000176859
8
-0.000157596
-0.000157596
8
-0.000138794
-0.000138794
8
-0.000120594
-0.000120594
8
-0.000103123
-0.000103123
7
-8.04755e-06
8.64929e-05
8.64929e-05
8
7.08041e-05
7.08041e-05
8
5.61407e-05
5.61407e-05
8
4.25725e-05
4.25725e-05
8
3.0155e-05
3.0155e-05
8
1.89291e-05
1.89291e-05
8
8.92161e-06
8.92161e-06
8
1.4552e-07
1.4552e-07
8
-7.39958e-06
-7.39958e-06
8
-1.3727e-05
-1.3727e-05
8
-1.88622e-05
-1.88622e-05
8
-2.28422e-05
-2.28422e-05
8
-2.57148e-05
-2.57148e-05
8
-2.75377e-05
-2.75377e-05
8
-2.83776e-05
-2.83776e-05
8
-2.83093e-05
-2.83093e-05
8
-2.74146e-05
-2.74146e-05
8
-2.57813e-05
-2.57813e-05
8
-2.35023e-05
-2.35023e-05
8
-2.06742e-05
-2.06742e-05
8
-1.73966e-05
-1.73966e-05
8
-1.37707e-05
-1.37707e-05
8
-9.89856e-06
-9.89856e-06
8
-5.88165e-06
-5.88165e-06
8
-1.82012e-06
-1.82012e-06
7

shape_id 2
num_samples 2500
0
0
248
0.5
0.0795775
0.0126651
0.00201572
0.000320812
5.10588e-05
8.12626e-06
1.29333e-06
2.05841e-07
3.27606e-08
5.214e-09
8.29834e-10
1.32072e-10
2.102e-11
3.34544e-12
0
0
483
-0.5
-0.0795775
-0.0126651
-0.00201572
-0.000320812
-5.10588e-05
-8.12626e-06
-1.29333e-06
-2.05841e-07
-3.27606e-08
-5.214e-09
-8.29834e-10
-1.32072e-10
-2.102e-11
-3.34543e-12
0
0
983
0.5
0.0795775
0.0126651
0.00201572
0.000320812
5.10588e-05
8.12626e-06
1.29333e-06
2.05841e-07
3.27606e-08
5.214e-09
8.29834e-10
1.32072e-10
2.102e-11
3.34544e-12
0
0
483
-0.5
-0.0795775
-0.0126651
-0.00201572
-0.000320812
-5.10588e-05
-8.12626e-06
-1.29333e-06
-2.05841e-07
-3.27606e-08
-5.214e-09
-8.29834e-10
-1.32072e-10
-2.102e-11
-3.34543e-12
0
0
233

shape_id 3
num_samples 990
-0.0163011
-0.0163011
0
-0.0315217
-0.0211389
-0.00114811
0.0167057
0.0249539
0.0292932
0.0319299
0.0329914
0.0325611
0.030792
0.0278853
0.0240675
0.0195685
0.0146072
0.00938279
0.00407045
-0.00118053
-0.00624587
-0.0110245
-0.0154363
-0.0194198
-0.0229297
-0.0259349
-0.0284167
-0.0303662
-0.0317849
-0.032682
-0.0330725
-0.032977
-0.0324223
-0.0314368
-0.0300532
-0.0283091
-0.0262361
-0.0238775
-0.0212703
-0.0184489
-0.0154632
-0.0123354
-0.00912171
-0.00583885
-0.00254119
0.000757282
0.00400508
0.0071939
0.0102729
0.0132415
0.0160515
0.0187043
0.0211652
0.0234249
0.0254728
0.0272853
0.0288678
0.0302023
0.0312868
0.0321222
0.0327013
0.0330293
0.0331076
0.0329408
0.0325356
0.0318971
0.0310372
0.0299668
0.0286924
0.0272278
0.0255929
0.0237946
0.0218456
0.0197653
0.0175745
0.0152802
0.0128982
0.0104473
0.00795082
0.00541696
0.00285979
0.000296282
-0.00225502
-0.00477608
-0.00725956
-0.00969153
-0.0120578
-0.0143449
-0.0165378
-0.0186285
-0.0206088
-0.0224685
-0.0241985
-0.0257909
-0.027238
-0.0285338
-0.0296752
-0.0306579
-0.0314783
-0.032134
-0.0326234
-0.032946
-0.033102
-0.0330927
-0.0329202
-0.032587
-0.0320964
-0.0314523
-0.0306595
-0.0297233
-0.0286496
-0.0274449
-0.0261162
-0.0246707
-0.0231166
-0.0214621
-0.0197154
-0.0178852
-0.0159806
-0.0140107
-0.0119849
-0.00991258
-0.00780324
-0.00566637
-0.00351146
-0.0013479
0.000814992
0.00296807
0.00510234
0.00720903
0.0092796
0.0113058
0.0132796
0.0151935
0.01704
0.0188124
0.020504
0.0221088
0.023621
0.0250354
0.0263473
0.0275521
0.0286462
0.0296261
0.0304889
0.0312321
0.031854
0.0323529
0.0327279
0.0329786
0.0331049
0.0331072
0.0329865
0.0327441
0.0323816
0.0319013
0.0313058
0.0305979
0.029781
0.0288589
0.0278356
0.0267155
0.0255032
0.0242036
0.0228218
0.0213632
0.0198334
0.0182381
0.0165831
0.0148746
0.0131186
0.0113213
0.0094888
0.00762753
0.00574573
0.00384915
0.00194367
3.56203e-05
-0.00186872
-0.00376317
-0.00564166
-0.0074983
-0.00932737
-0.0111235
-0.0128805
-0.0145899
-0.0162486
-0.0178523
-0.0193964
-0.0208763
-0.022288
-0.0236273
-0.024891
-0.0260749
-0.0271727
-0.0281835
-0.0291058
-0.0299373
-0.030676
-0.0313199
-0.0318677
-0.0323177
-0.0326675
-0.0329181
-0.03307
-0.0331231
-0.0330777
-0.0329339
-0.0326915
-0.0323524
-0.0319201
-0.0313957
-0.0307808
-0.0300771
-0.0292861
-0.0284084
-0.0274513
-0.0264211
-0.0253174
-0.0241429
-0.0229003
-0.0215908
-0.0202184
-0.0188001
-0.0173334
-0.0158198
-0.0142626
-0.0126634
-0.0110247
-0.00936957
-0.00769539
-0.00600128
-0.00429043
-0.00256387
-0.000826577
0.000894779
0.00260848
0.00431501
0.00601185
0.00769968
0.0093618
0.0109816
0.0125713
0.0141292
0.0156546
0.0171443
0.0185699
0.0199419
0.0212635
0.0225335
0.023752
0.024896
0.0259671
0.0269735
0.0279139
0.0287882
0.0295805
0.0302897
0.0309244
0.0314836
0.0319659
0.0323612
0.0326722
0.0329038
0.0330547
0.0331218
0.0331039
0.033006
0.0328284
0.0325683
0.0322226
0.0318042
0.0313118
0.0307427
0.0300907
0.0293647
0.028582
0.0277314
0.0268086
0.0258066
0.0247618
0.0236674
0.0225128
0.0212877
0.0200144
0.0187209
0.0173813
0.015987
0.0145378
0.0130914
0.0116198
0.01011
0.00854911
0.00699938
0.00545235
0.00388258
0.00227487
0.000677943
-0.000887372
-0.0024599
-0.00405464
-0.00563726
-0.0071649
-0.00868408
-0.0102099
-0.0117177
-0.0131536
-0.0145665
-0.0159719
-0.0173489
-0.0186427
-0.0199015
-0.0211399
-0.0223366
-0.023444
-0.0245073
-0.0255388
-0.0265135
-0.0273982
-0.0282321
-0.0290236
-0.0297439
-0.030379
-0.0309581
-0.0314837
-0.0319285
-0.0322967
-0.0326039
-0.0328457
-0.0330069
-0.0330998
-0.033126
-0.0330762
-0.032958
-0.0327752
-0.0325175
-0.032184
-0.0317985
-0.0313468
-0.0308098
-0.0302174
-0.0295808
-0.0288716
-0.0280755
-0.0272578
-0.02639
-0.0254374
-0.024428
-0.0234135
-0.0223376
-0.0211691
-0.0200042
-0.018818
-0.0175544
-0.0162359
-0.014952
-0.0136224
-0.0122044
-0.0108165
-0.00943496
-0.00798506
-0.00649809
-0.00507809
-0.00362529
-0.00209648
-0.000635526
0.000806141
0.00230795
0.00380611
0.00522094
0.0066631
0.00815206
0.009536
0.0109041
0.0123213
0.0136729
0.0149526
0.0162575
0.0175515
0.0187325
0.0199077
0.0211002
0.0221772
0.0232131
0.0242621
0.0252273
0.0261141
0.0269962
0.0278289
0.0285597
0.0292657
0.0299397
0.0305093
0.0310354
0.03153
0.0319322
0.0322771
0.0325807
0.0328076
0.0329706
0.0330822
0.0331242
0.0331069
0.0330308
0.0328824
0.0326872
0.0324307
0.0320922
0.0317223
0.0312945
0.0307725
0.0302323
0.0296438
0.0289502
0.0282457
0.0275087
0.0266594
0.0257992
0.0249277
0.0239401
0.0229369
0.0219463
0.020839
0.019709
0.018616
0.0174081
0.0161707
0.0149933
0.0137045
0.0123813
0.0111388
0.00978925
0.00840344
0.00711592
0.005726
0.00430178
0.00299
0.00158012
0.000142239
-0.00117285
-0.00258241
-0.00400909
-0.00530684
-0.00669606
-0.008087
-0.00934749
-0.0106967
-0.0120281
-0.0132326
-0.0145227
-0.0157721
-0.0169033
-0.0181155
-0.0192623
-0.0203047
-0.0214207
-0.0224469
-0.0233868
-0.0243884
-0.0252796
-0.0261049
-0.0269743
-0.0277205
-0.0284203
-0.0291404
-0.029736
-0.0303
-0.0308566
-0.0312992
-0.0317174
-0.0321009
-0.03239
-0.0326524
-0.032859
-0.032995
-0.0330924
-0.0331249
-0.0331082
-0.0330325
-0.0328999
-0.0327296
-0.0324767
-0.0321921
-0.0318648
-0.0314394
-0.0310149
-0.0305263
-0.0299433
-0.0293876
-0.028734
-0.0280171
-0.0273346
-0.0265162
-0.0256944
-0.0248835
-0.0239133
-0.0230109
-0.0220649
-0.0209772
-0.0200023
-0.0189188
-0.0177577
-0.0167101
-0.0154939
-0.0143047
-0.0131754
-0.0118524
-0.0106643
-0.00943926
-0.00806869
-0.00687791
-0.00555641
-0.00420113
-0.00299303
-0.00159146
-0.000301004
0.000947972
0.00237202
0.00359225
0.00489422
0.00626213
0.00743806
0.00877962
0.0100316
0.0111945
0.0125226
0.0136466
0.0148172
0.0160465
0.0170784
0.0182425
0.0193141
0.0202914
0.021394
0.022304
0.023246
0.0242069
0.0249982
0.0258842
0.0266606
0.0273696
0.0281405
0.0287491
0.0293812
0.0299784
0.0304612
0.0309851
0.0313975
0.0317754
0.0321405
0.0324025
0.0326589
0.0328481
0.0329833
0.0330848
0.0331212
0.0331198
0.0330567
0.0329627
0.0327966
0.0325978
0.0323595
0.032032
0.0317188
0.0313041
0.0308624
0.0304122
0.0298284
0.0293057
0.0286726
0.0279924
0.0273559
0.0265407
0.0258225
0.0250051
0.0241063
0.0233095
0.0222993
0.0214068
0.020441
0.0193562
0.018428
0.0172651
0.0162284
0.0151508
0.0139224
0.0128955
0.0116242
0.0104823
0.00932973
0.008006
0.00691712
0.00558121
0.00438047
0.00318965
0.00182198
0.000710677
-0.000646812
-0.00185614
-0.00304906
-0.00440798
-0.00550184
-0.00683825
-0.00800575
-0.00916551
-0.0104635
-0.0115022
-0.0127746
-0.0138535
-0.0149461
-0.0161332
-0.0170835
-0.0182482
-0.0191992
-0.0201913
-0.0212224
-0.0220563
-0.0230696
-0.0238634
-0.024722
-0.02556
-0.0262544
-0.0270754
-0.0276931
-0.0283851
-0.0290044
-0.0295387
-0.0301338
-0.0305658
-0.0310579
-0.0314483
-0.0318015
-0.0321498
-0.0323924
-0.0326527
-0.0328211
-0.032969
-0.0330674
-0.0331166
-0.0331241
-0.0330876
-0.0330045
-0.0328711
-0.0327159
-0.0324722
-0.0322459
-0.0319118
-0.0315823
-0.0312036
-0.0307375
-0.0303239
-0.0297438
-0.0292526
-0.0286315
-0.0279964
-0.0273813
-0.0265962
-0.0259587
-0.0250957
-0.0243517
-0.023513
-0.0225946
-0.021797
-0.0207467
-0.0199185
-0.0188519
-0.0178847
-0.0168969
-0.0157531
-0.0148241
-0.0135865
-0.012613
-0.0114222
-0.0102911
-0.00921763
-0.00792919
-0.00692332
-0.00558484
-0.00452774
-0.00328543
-0.00207234
-0.000973029
0.000368771
0.00139148
0.0027454
0.00381237
0.00503899
0.00624286
0.00731
0.00861225
0.00958951
0.0108779
0.0118778
0.0130259
0.0141307
0.0151105
0.0162849
0.0171583
0.0183048
0.0191681
0.0201778
0.0211043
0.0219462
0.0229142
0.0236346
0.024568
0.0252419
0.0260551
0.0267439
0.0274012
0.0281009
0.0286306
0.0292888
0.0297418
0.0303013
0.0307213
0.0311488
0.0315441
0.0318525
0.0321923
0.0324117
0.0326649
0.0328178
0.0329685
0.033058
0.0331145
0.0331249
0.0331033
0.0330221
0.0329277
0.0327597
0.0325798
0.0323479
0.0320608
0.0317822
0.0313823
0.0310557
0.0305589
0.0301607
0.0296074
0.0290969
0.0285305
0.0278815
0.0273131
0.0265383
0.0259474
0.0250877
0.0244279
0.0235494
0.0227623
0.0219194
0.0209792
0.0201771
0.0191099
0.018316
0.0171776
0.016333
0.0152031
0.0142389
0.0131842
0.0120674
0.0110958
0.00985515
0.00893167
0.0076266
0.00669161
0.00540224
0.00438322
0.00319012
0.00203779
0.000963941
-0.000304981
-0.00128546
-0.00261876
-0.00355726
-0.0048845
-0.00584628
-0.00708741
-0.00813299
-0.00923785
-0.0103816
-0.011355
-0.0125612
-0.0134396
-0.014654
-0.0154867
-0.0166468
-0.0174878
-0.0185315
-0.0194215
-0.020322
-0.0212581
-0.0220288
-0.0229772
-0.0236498
-0.0245673
-0.0251787
-0.0260215
-0.026607
-0.0273361
-0.0279197
-0.0285195
-0.0290973
-0.0295792
-0.0301272
-0.0305131
-0.0310042
-0.0313159
-0.0317268
-0.0319811
-0.0322958
-0.0325011
-0.0327149
-0.0328673
-0.0329893
-0.0330747
-0.0331187
-0.0331237
-0.0331005
-0.0330176
-0.0329313
-0.0327613
-0.0326076
-0.0323614
-0.0321272
-0.0318233
-0.0314927
-0.0311464
-0.0307109
-0.0303305
-0.0297896
-0.0293753
-0.0287378
-0.0282812
-0.0275649
-0.0270491
-0.0262808
-0.0256811
-0.0248948
-0.0241857
-0.0234066
-0.0225775
-0.0218146
-0.0208707
-0.0201215
-0.0190777
-0.0183309
-0.0172106
-0.0164475
-0.0152815
-0.0144768
-0.013302
-0.0124259
-0.0112822
-0.0103078
-0.00922259
-0.00814166
-0.0071222
-0.00594471
-0.00498561
-0.0037308
-0.00281923
-0.00151258
-0.000630445
0.000698121
0.00157264
0.00289026
0.00378115
0.00505369
0.00598499
0.00718001
0.00816971
0.00926836
0.0103175
0.0113178
0.0124133
0.0133225
0.0144456
0.0152757
0.0164044
0.0171696
0.0182809
0.0189961
0.0200671
0.0207472
0.0217562
0.0224144
0.0233423
0.0239892
0.0248204
0.0254617
0.0261888
0.0268214
0.0274465
0.0280594
0.0285899
0.0291697
0.0296147
0.0301479
0.0305164
0.0309904
0.0312908
0.0316948
0.0319337
0.0322595
0.0324416
0.0326836
0.0328112
0.032967
0.0330399
0.0331103
0.0331255
0.0331147
0.0330667
0.0329814
0.0328635
0.0327116
0.0325171
0.0323063
0.0320298
0.0317669
0.0314047
0.0310953
0.0306456
0.0302937
0.0297567
0.029365
0.028743
0.0283126
0.0276098
0.0271403
0.026363
0.0258526
0.0250086
0.0244545
0.0235533
0.0229515
0.0220039
0.0213499
0.0203673
0.0196561
0.0186508
0.0178776
0.0168616
0.0160226
0.015006
0.0141002
0.0130903
0.01212
0.011122
0.0100564
0.00744067
0.0038815
0.000583621
-0.00269582
-0.00585975
-0.00894639
-0.0118821
-0.0146835
-0.0172941
-0.0197294
-0.0219473
-0.0239646
-0.0257568
-0.0273368
-0.0287017
-0.0298566
-0.0308166
